#Wave		#Intensity
1725.743164	4055.896973
1724.768555	4176.394531
1723.792969	4170.354004
1722.817383	4202.755859
1721.841797	4214.646484
1720.866211	4190.670410
1719.889648	4184.631836
1718.913086	4065.937500
1717.936523	4210.959961
1716.959961	4271.462402
1715.982422	4101.651855
1715.005859	4215.873047
1714.028320	4214.951660
1713.049805	4237.043945
1712.072266	4340.934570
1711.093750	4268.419922
1710.116211	4234.267090
1709.137695	4307.432129
1708.158203	4260.514648
1707.179688	4348.964355
1706.200195	4378.652344
1705.220703	4408.327637
1704.241211	4440.541992
1703.261719	4294.138184
1702.281250	4351.872559
1701.301758	4442.735840
1700.321289	4467.264648
1699.339844	4320.982910
1698.359375	4404.147461
1697.377930	4477.083008
1696.396484	4481.202148
1695.415039	4424.190430
1694.433594	4441.051270
1693.451172	4549.557617
1692.469727	4383.117188
1691.487305	4438.147949
1690.504883	4505.875977
1689.521484	4482.000977
1688.539063	4506.456055
1687.555664	4655.487305
1686.572266	4514.661133
1685.587891	4539.092773
1684.604492	4627.037109
1683.620117	4580.302734
1682.635742	4637.721680
1681.651367	4624.016113
1680.666992	4739.790527
1679.681641	4708.301270
1678.696289	4722.502441
1677.710938	4660.585449
1676.725586	4710.301758
1675.739258	4696.597656
1674.753906	4655.009766
1673.767578	4757.926270
1672.781250	4797.440918
1671.793945	4689.979980
1670.807617	4676.294434
1669.820313	4819.639160
1668.833008	4851.508789
1667.845703	4696.029785
1666.857422	4973.419434
1665.870117	4807.859863
1664.881836	4900.421387
1663.892578	4841.181641
1662.904297	4809.784668
1661.916016	4839.079102
1660.926758	5042.772461
1659.937500	5061.894531
1658.948242	4995.103516
1657.958008	5057.170898
1656.968750	5073.751465
1655.978516	5047.400879
1654.988281	5223.014160
1653.997070	5138.593262
1653.006836	5097.104980
1652.015625	5181.773438
1651.024414	5246.227051
1650.033203	5192.133789
1649.041016	5246.472168
1648.049805	5116.784668
1647.057617	5218.996582
1646.065430	5301.007813
1645.072266	5163.835449
1644.080078	5220.639160
1643.086914	5483.881836
1642.093750	5306.481934
1641.100586	5327.982422
1640.107422	5354.505859
1639.113281	5270.328613
1638.119141	5432.669922
1637.125000	5421.434082
1636.130859	5465.512207
1635.135742	5476.895996
1634.141602	5407.859863
1633.146484	5348.903320
1632.151367	5413.053223
1631.155273	5449.550781
1630.160156	5302.745605
1629.164063	5477.313477
1628.167969	5420.914551
1627.170898	5527.633789
1626.174805	5468.739746
1625.177734	5307.040527
1624.180664	5295.861816
1623.183594	5146.804688
1622.186523	5168.248535
1621.188477	5227.271484
1620.190430	5276.247070
1619.192383	5325.201660
1618.194336	5288.990234
1617.196289	5242.778809
1616.197266	5379.319336
1615.198242	5350.626953
1614.199219	5381.997070
1613.199219	5433.365723
1612.200195	5557.241211
1611.200195	5601.047852
1610.200195	5677.334473
1609.200195	5746.089844
1608.199219	5877.286621
1607.199219	5781.080566
1606.198242	5852.266113
1605.196289	5898.448242
1604.195313	5832.259766
1603.194336	5773.587891
1602.192383	5874.660156
1601.190430	5718.696289
1600.187500	5709.977051
1599.185547	5798.527344
1598.182617	5557.902832
1597.179688	5511.830078
1596.176758	5610.333984
1595.173828	5511.940918
1594.169922	5585.489258
1593.166992	5668.968750
1592.163086	5560.664551
1591.158203	5522.118652
1590.154297	5578.176270
1589.149414	5671.539063
1588.144531	5578.255859
1587.139648	5527.300781
1586.134766	5538.542480
1585.128906	5410.537109
1584.123047	5461.573730
1583.117188	5378.376953
1582.111328	5389.640137
1581.105469	5358.665039
1580.098633	5359.992188
1579.091797	5294.271484
1578.084961	5250.922852
1577.078125	5336.665527
1576.070313	5407.481445
1575.062500	5297.145996
1574.054688	5422.511719
1573.046875	5438.702148
1572.038086	5278.841309
1571.030273	5394.213379
1570.021484	5331.088867
1569.012695	5357.195801
1568.002930	5365.949707
1566.994141	5449.003906
1565.984375	5291.822754
1564.974609	5402.089844
1563.964844	5230.134766
1562.954102	5310.671387
1561.943359	5381.276367
1560.933594	5273.750488
1559.921875	5433.363770
1558.911133	5390.158691
1557.899414	5290.115723
1556.888672	5326.047363
1555.876953	5411.382324
1554.864258	5387.981445
1553.852539	5443.627441
1552.839844	5291.823242
1551.827148	5428.936035
1550.814453	5563.521973
1549.801758	5236.578613
1548.788086	5220.646484
1547.774414	5202.253906
1546.760742	5341.704102
1545.747070	5335.621094
1544.732422	5349.261719
1543.718750	5407.258301
1542.704102	5472.622070
1541.689453	5252.190430
1540.673828	5374.207031
1539.659180	5565.119629
1538.643555	5285.724121
1537.627930	5289.507813
1536.611328	5362.193359
1535.595703	5343.815430
1534.579102	5443.515137
1533.562500	5373.482910
1532.545898	5332.985352
1531.529297	5471.953613
1530.511719	5401.959961
1529.494141	5562.967285
1528.476563	5497.896484
1527.458984	5531.097168
1526.440430	5500.438477
1525.421875	5582.724121
1524.403320	5556.976563
1523.384766	5528.785645
1522.366211	5510.420410
1521.346680	5460.174805
1520.327148	5650.284180
1519.307617	5604.933594
1518.288086	5542.442871
1517.267578	5607.420410
1516.247070	5466.546875
1515.226563	5543.760742
1514.206055	5598.898438
1513.185547	5580.551270
1512.164063	5628.312012
1511.142578	5629.547363
1510.121094	5647.911133
1509.099609	5627.122070
1508.077148	5608.787598
1507.054688	5759.201172
1506.032227	5699.280762
1505.009766	5632.052246
1503.986328	5877.677246
1502.963867	5710.258789
1501.940430	5828.729980
1500.916992	5859.225098
1499.892578	5826.218750
1498.869141	5815.198242
1497.844727	6006.767578
1496.820313	5946.907227
1495.794922	6062.733398
1494.770508	6076.062500
1493.745117	6152.791016
1492.719727	6073.444336
1491.694336	6194.017578
1490.668945	6433.956543
1489.642578	6493.484863
1488.616211	6282.584961
1487.589844	6459.025391
1486.563477	6516.073730
1485.536133	6860.366211
1484.508789	6683.643066
1483.481445	7149.421875
1482.454102	7079.760254
1481.425781	7447.957031
1480.398438	7723.583984
1479.370117	8127.952637
1478.341797	8344.974609
1477.312500	8746.603516
1476.284180	9546.541016
1475.254883	9770.403320
1474.225586	10484.769531
1473.196289	11444.074219
1472.166016	12264.587891
1471.135742	13174.552734
1470.105469	14166.628906
1469.075195	15165.555664
1468.044922	16556.994141
1467.013672	17283.367188
1465.982422	17834.859375
1464.951172	18597.003906
1463.919922	18946.824219
1462.887695	19286.800781
1461.855469	19810.736328
1460.823242	19607.869141
1459.791016	19603.642578
1458.758789	19688.988281
1457.725586	19650.859375
1456.692383	19194.113281
1455.659180	18911.755859
1454.625977	18602.910156
1453.591797	18427.203125
1452.557617	18118.593750
1451.523438	16787.630859
1450.489258	15735.161133
1449.454102	14605.826172
1448.419922	13759.611328
1447.384766	13020.025391
1446.348633	12085.174805
1445.313477	11800.119141
1444.277344	11404.160156
1443.241211	11049.394531
1442.205078	10769.569336
1441.168945	10854.079102
1440.131836	10851.738281
1439.094727	10569.723633
1438.057617	10837.415039
1437.020508	10738.679688
1435.983398	11047.177734
1434.945313	11061.656250
1433.907227	11394.034180
1432.869141	11410.838867
1431.830078	11504.669922
1430.791992	11682.699219
1429.752930	11903.963867
1428.713867	12129.944336
1427.673828	12264.425781
1426.634766	12483.015625
1425.594727	12679.871094
1424.554688	13256.426758
1423.514648	13308.838867
1422.473633	13582.272461
1421.433594	13985.303711
1420.392578	14212.840820
1419.350586	14560.333984
1418.309570	14749.237305
1417.267578	14885.256836
1416.226563	15577.914063
1415.183594	15574.549805
1414.141602	15938.160156
1413.099609	16601.361328
1412.056641	16708.060547
1411.013672	16848.269531
1409.970703	17496.464844
1408.926758	17780.195313
1407.882813	18332.089844
1406.838867	18886.140625
1405.794922	19133.468750
1404.750977	19347.175781
1403.706055	20230.925781
1402.661133	20365.337891
1401.616211	20549.929688
1400.571289	20557.445313
1399.525391	21102.996094
1398.480469	20825.888672
1397.434570	20881.142578
1396.387695	21180.123047
1395.341797	20955.736328
1394.294922	20798.330078
1393.248047	20939.509766
1392.201172	20727.255859
1391.154297	20815.873047
1390.106445	20978.433594
1389.058594	21329.427734
1388.010742	21460.791016
1386.962891	21875.921875
1385.914063	22450.638672
1384.865234	22977.423828
1383.816406	23506.361328
1382.767578	23558.466797
1381.717773	23732.056641
1380.668945	24265.248047
1379.619141	24129.015625
1378.568359	23940.460938
1377.518555	23901.951172
1376.467773	23363.675781
1375.416992	23039.775391
1374.366211	23037.166016
1373.315430	22478.017578
1372.263672	22133.115234
1371.212891	21688.513672
1370.161133	21282.130859
1369.108398	21372.574219
1368.056641	20831.013672
1367.003906	20543.841797
1365.951172	20349.408203
1364.898438	20067.210938
1363.844727	19766.144531
1362.791992	19773.726563
1361.738281	19888.076172
1360.683594	19523.191406
1359.629883	19962.464844
1358.575195	20207.109375
1357.520508	20110.271484
1356.465820	20286.042969
1355.411133	20776.894531
1354.355469	20926.380859
1353.300781	21438.197266
1352.245117	21968.734375
1351.188477	22155.742188
1350.132813	22813.710938
1349.076172	23367.265625
1348.019531	24239.992188
1346.962891	24520.960938
1345.905273	24901.132813
1344.848633	25529.412109
1343.791016	25980.117188
1342.733398	26444.806641
1341.674805	26611.560547
1340.617188	26801.863281
1339.558594	27211.742188
1338.500000	26766.609375
1337.440430	26621.501953
1336.381836	26108.236328
1335.322266	25684.865234
1334.262695	25386.724609
1333.203125	24649.964844
1332.142578	23977.197266
1331.082031	23436.759766
1330.021484	22566.533203
1328.960938	22222.248047
1327.900391	21449.267578
1326.838867	20709.601563
1325.777344	20243.466797
1324.715820	19539.705078
1323.654297	19085.794922
1322.591797	18556.761719
1321.529297	17783.224609
1320.466797	17327.636719
1319.404297	17102.759766
1318.340820	16513.470703
1317.277344	16312.377930
1316.213867	16059.658203
1315.150391	15745.943359
1314.085938	15331.329102
1313.022461	15156.504883
1311.958008	14878.416992
1310.892578	14863.436523
1309.828125	14775.685547
1308.762695	14939.108398
1307.697266	14602.641602
1306.631836	14477.464844
1305.566406	14523.565430
1304.500000	14438.324219
1303.433594	14057.709961
1302.367188	13914.004883
1301.299805	13582.881836
1300.233398	13584.605469
1299.166016	13164.682617
1298.098633	13011.925781
1297.030273	12948.208984
1295.962891	12619.994141
1294.894531	12439.367188
1293.826172	12453.032227
1292.757813	12099.403320
1291.688477	12071.034180
1290.619141	12117.504883
1289.549805	12075.115234
1288.480469	12035.080078
1287.411133	12079.188477
1286.340820	12165.331055
1285.270508	11964.126953
1284.200195	12195.044922
1283.128906	12091.983398
1282.058594	12294.758789
1280.987305	12294.405273
1279.916016	12301.050781
1278.843750	12417.332031
1277.771484	12351.645508
1276.700195	12593.778320
1275.626953	12842.796875
1274.554688	12928.555664
1273.481445	13461.676758
1272.409180	13733.636719
1271.335938	14413.086914
1270.261719	14782.522461
1269.188477	15438.161133
1268.114258	15648.925781
1267.040039	16285.468750
1265.964844	16698.373047
1264.890625	16631.908203
1263.815430	16902.689453
1262.740234	17017.566406
1261.665039	17125.419922
1260.588867	16759.105469
1259.513672	16801.904297
1258.437500	16572.880859
1257.360352	16258.022461
1256.284180	16168.540039
1255.207031	15737.828125
1254.129883	15657.781250
1253.052734	15658.986328
1251.975586	15279.706055
1250.897461	15487.428711
1249.819336	15467.795898
1248.741211	15047.070313
1247.662109	14791.105469
1246.583984	14542.204102
1245.504883	14763.755859
1244.425781	14531.183594
1243.345703	13946.685547
1242.266602	13501.371094
1241.186523	13507.663086
1240.106445	13092.725586
1239.026367	12798.293945
1237.945313	12508.616211
1236.864258	12017.842773
1235.783203	11719.212891
1234.702148	11644.966797
1233.620117	11492.165039
1232.538086	11196.156250
1231.456055	10750.102539
1230.374023	10484.414063
1229.291016	10244.243164
1228.208984	10115.001953
1227.125977	10006.590820
1226.041992	9856.686523
1224.958984	9628.398438
1223.875000	9510.937500
1222.791016	9421.202148
1221.707031	9402.985352
1220.622070	9228.016602
1219.538086	9375.791992
1218.453125	9253.902344
1217.367188	9410.820313
1216.282227	9689.740234
1215.196289	9620.822266
1214.110352	9931.801758
1213.024414	9611.972656
1211.938477	9718.007813
1210.851563	9922.925781
1209.764648	10044.944336
1208.677734	10219.801758
1207.589844	10015.216797
1206.502930	10109.547852
1205.415039	10047.561523
1204.326172	9686.907227
1203.238281	9861.645508
1202.149414	9707.887695
1201.060547	9441.685547
1199.971680	9340.885742
1198.882813	9322.752930
1197.792969	8960.437500
1196.703125	8917.160156
1195.613281	8825.737305
1194.523438	8615.112305
1193.432617	8597.157227
1192.341797	8515.030273
1191.250977	8368.776367
1190.160156	8405.870117
1189.068359	8266.575195
1187.976563	8145.660645
1186.884766	8134.697266
1185.792969	8082.535156
1184.700195	8369.095703
1183.607422	8376.391602
1182.514648	8383.683594
1181.421875	8329.222656
1180.328125	8430.265625
1179.234375	8615.844727
1178.140625	8913.328125
1177.046875	9057.586914
1175.952148	9363.976563
1174.857422	9553.748047
1173.762695	10154.453125
1172.667969	10104.255859
1171.572266	10508.281250
1170.476563	11021.658203
1169.380859	11340.886719
1168.285156	12050.005859
1167.188477	12599.181641
1166.091797	13506.053711
1164.995117	14211.935547
1163.898438	14988.147461
1162.800781	15609.083008
1161.703125	16573.697266
1160.605469	17380.744141
1159.507813	18264.841797
1158.409180	18984.648438
1157.310547	19738.269531
1156.211914	20446.044922
1155.113281	20614.373047
1154.013672	21487.660156
1152.914063	21632.939453
1151.814453	21780.423828
1150.714844	22121.029297
1149.614258	22363.771484
1148.513672	22208.843750
1147.413086	22337.890625
1146.312500	22255.697266
1145.210938	22407.373047
1144.109375	22506.777344
1143.007813	22528.978516
1141.906250	22798.460938
1140.803711	22809.242188
1139.701172	23232.742188
1138.598633	23556.292969
1137.496094	24265.035156
1136.392578	25007.451172
1135.289063	25853.753906
1134.185547	27327.130859
1133.082031	27678.832031
1131.977539	28342.828125
1130.873047	29185.353516
1129.768555	30183.656250
1128.663086	30726.716797
1127.558594	30407.656250
1126.453125	30805.671875
1125.347656	30287.751953
1124.241211	30066.203125
1123.135742	29254.861328
1122.029297	28753.445313
1120.921875	28028.601563
1119.815430	27441.853516
1118.708008	27334.080078
1117.600586	26946.412109
1116.493164	26877.164063
1115.385742	26670.292969
1114.277344	26716.189453
1113.168945	27150.017578
1112.060547	26843.994141
1110.951172	27250.539063
1109.841797	27478.830078
1108.732422	27123.355469
1107.623047	27137.529297
1106.513672	26725.972656
1105.403320	26463.228516
1104.292969	25651.238281
1103.182617	25555.421875
1102.071289	24978.044922
1100.959961	23995.931641
1099.848633	23248.201172
1098.737305	22745.943359
1097.625000	22421.535156
1096.513672	22146.726563
1095.400391	22476.599609
1094.288086	22795.087891
1093.175781	23138.138672
1092.062500	23826.904297
1090.949219	24573.736328
1089.834961	25012.677734
1088.721680	25188.826172
1087.607422	25708.205078
1086.493164	26195.939453
1085.377930	26775.408203
1084.263672	27246.978516
1083.148438	27595.031250
1082.032227	27503.619141
1080.916992	27631.847656
1079.800781	27260.419922
1078.684570	26286.644531
1077.568359	25476.777344
1076.452148	24262.046875
1075.334961	22772.552734
1074.217773	21623.876953
1073.100586	20260.939453
1071.982422	18934.406250
1070.865234	17563.746094
1069.747070	17177.445313
1068.627930	16889.671875
1067.509766	16771.867188
1066.390625	16707.736328
1065.271484	17376.300781
1064.152344	17381.289063
1063.032227	17866.308594
1061.912109	18094.402344
1060.791992	18534.402344
1059.671875	19023.287109
1058.550781	19286.646484
1057.429688	19587.798828
1056.308594	19786.244141
1055.187500	20546.351563
1054.065430	20367.839844
1052.943359	20991.546875
1051.821289	20955.582031
1050.698242	20863.951172
1049.576172	20819.119141
1048.453125	20527.203125
1047.329102	20284.382813
1046.206055	19983.818359
1045.082031	19879.154297
1043.958008	19625.521484
1042.833984	19440.931641
1041.708984	19074.132813
1040.584961	18558.583984
1039.458984	18305.474609
1038.333984	17805.884766
1037.208984	17506.416016
1036.083008	17218.185547
1034.957031	16976.705078
1033.830078	17110.435547
1032.703125	16806.953125
1031.577148	16607.880859
1030.449219	16610.734375
1029.322266	16318.657227
1028.194336	16303.836914
1027.066406	16096.186523
1025.938477	16101.364258
1024.810547	15858.404297
1023.681641	15513.665039
1022.552734	15817.919922
1021.422852	15847.503906
1020.293945	15595.962891
1019.164063	15322.407227
1018.034180	15272.430664
1016.904297	15049.945313
1015.773438	15086.295898
1014.642578	14903.748047
1013.511719	14931.270508
1012.379883	14658.233398
1011.249023	14584.164063
1010.117188	14662.541016
1008.985352	14535.500977
1007.852539	14152.405273
1006.719727	14281.590820
1005.586914	13929.623047
1004.454102	14074.241211
1003.320313	14077.618164
1002.187500	13692.855469
1001.053711	13343.544922
999.918945	12961.329102
998.785156	12363.316406
997.650391	12080.648438
996.514648	11507.340820
995.379883	11026.792969
994.244141	10812.878906
993.108398	10328.307617
991.972656	9960.598633
990.836914	9619.460938
989.700195	9483.055664
988.563477	9441.278320
987.425781	9232.416992
986.289063	9294.030273
985.151367	9140.239258
984.013672	9098.576172
982.875977	9136.010742
981.737305	9171.231445
980.598633	9265.717773
979.459961	9103.325195
978.320313	9033.182617
977.180664	9099.108398
976.041016	8809.632813
974.901367	8520.291016
973.761719	8226.697266
972.621094	7979.273438
971.480469	7953.314453
970.338867	7907.646484
969.198242	7656.084473
968.056641	7864.553223
966.915039	7676.613281
965.772461	7775.526367
964.629883	7683.988770
963.487305	7953.519043
962.344727	7938.543945
961.202148	8081.040527
960.058594	8081.346680
958.915039	8260.904297
957.770508	8599.917969
956.626953	8857.927734
955.482422	9301.497070
954.337891	9594.165039
953.192383	10406.358398
952.046875	11076.280273
950.901367	12428.991211
949.755859	13593.424805
948.610352	15518.627930
947.463867	17992.521484
946.317383	21086.671875
945.169922	24894.378906
944.023438	28290.580078
942.875977	30881.187500
941.728516	32499.027344
940.580078	31981.808594
939.431641	30748.482422
938.283203	29193.556641
937.134766	27247.615234
935.986328	26172.910156
934.836914	24652.765625
933.687500	23603.085938
932.537109	22810.462891
931.386719	22024.728516
930.237305	21478.419922
929.085938	20682.498047
927.935547	20382.220703
926.784180	20032.128906
925.632813	19944.919922
924.481445	19510.433594
923.329102	19249.765625
922.176758	18668.101563
921.024414	18266.751953
919.872070	17817.878906
918.718750	17165.404297
917.565430	16883.906250
916.412109	16364.150391
915.257813	15861.970703
914.103516	15966.541992
912.949219	15761.378906
911.794922	15744.673828
910.639648	15734.469727
909.484375	15702.626953
908.329102	15722.722656
907.172852	15848.797852
906.017578	15319.555664
904.860352	14913.798828
903.704102	14263.977539
902.547852	13571.241211
901.390625	12963.090820
900.232422	12590.666016
899.075195	12008.944336
897.916992	11505.220703
896.758789	11105.339844
895.600586	11005.603516
894.441406	10334.188477
893.282227	10174.285156
892.123047	9807.438477
890.963867	9449.387695
889.803711	9490.256836
888.643555	9466.457031
887.483398	9434.050781
886.322266	9477.043945
885.161133	9548.009766
884.000000	9597.411133
882.838867	9913.678711
881.676758	10221.186523
880.514648	10797.461914
879.352539	11339.049805
878.190430	12196.471680
877.027344	13102.928711
875.864258	13968.117188
874.700195	15320.660156
873.537109	16597.369141
872.373047	18045.287109
871.208008	18884.847656
870.043945	19762.646484
868.878906	20423.257813
867.713867	20849.671875
866.548828	20801.794922
865.382813	20923.367188
864.216797	20695.380859
863.050781	20435.345703
861.883789	20036.128906
860.716797	19971.347656
859.549805	19227.548828
858.382813	18867.447266
857.214844	18462.552734
856.046875	18218.390625
854.878906	17768.898438
853.710938	17738.970703
852.541992	17212.798828
851.373047	17099.611328
850.203125	16695.707031
849.034180	16336.879883
847.864258	16008.141602
846.694336	15532.141602
845.523438	15351.129883
844.352539	14664.102539
843.181641	14336.072266
842.010742	13700.840820
840.838867	13420.141602
839.666992	12804.631836
838.495117	12389.907227
837.322266	11890.085938
836.149414	11166.658203
834.976563	10803.774414
833.803711	10178.970703
832.629883	9773.889648
831.456055	9313.627930
830.282227	8840.810547
829.107422	8610.900391
827.932617	8372.586914
826.757813	7998.210938
825.583008	8081.370117
824.407227	7745.523926
823.231445	7696.876953
822.055664	7295.387207
820.878906	7378.631836
819.702148	7266.365723
818.525391	7222.125488
817.348633	7061.105469
816.170898	6995.703125
814.993164	7064.056152
813.814453	7278.800293
812.636719	7054.270996
811.458008	6931.660645
810.279297	7239.582031
809.099609	7047.022949
807.919922	6952.054199
806.740234	6905.868652
805.560547	7090.620605
804.379883	7237.158203
803.199219	7235.400391
802.018555	7311.969727
800.836914	7432.946777
799.655273	7498.849121
798.473633	7617.604004
797.291992	7740.529785
796.109375	8072.718750
794.926758	8284.253906
793.744141	8351.977539
792.560547	8406.989258
791.376953	8411.277344
790.193359	8816.806641
789.008789	8818.878906
787.824219	8816.727539
786.639648	9063.586914
785.455078	9112.008789
784.269531	9333.362305
783.083984	9487.126953
781.898438	9505.890625
780.711914	9577.335938
779.525391	9612.922852
778.338867	9831.770508
777.152344	10031.553711
775.964844	10241.766602
774.777344	10668.701172
773.588867	10973.358398
772.401367	11469.335938
771.212891	11586.426758
770.024414	11867.497070
768.834961	11896.123047
767.645508	11584.208008
766.456055	11446.868164
765.265625	11223.453125
764.076172	10741.789063
762.885742	10604.752930
761.694336	10255.739258
760.503906	10326.678711
759.312500	10040.853516
758.120117	9876.845703
756.928711	9599.658203
755.736328	9502.935547
754.543945	9387.392578
753.350586	9211.125977
752.157227	8898.750000
750.963867	8812.763672
749.770508	8557.182617
748.576172	8431.540039
747.381836	8215.948242
746.187500	8115.561035
744.992188	8042.420898
743.796875	7827.081055
742.601563	7908.792480
741.406250	7885.929688
740.209961	7831.725098
739.013672	7804.711426
737.816406	7940.659180
736.620117	7949.135254
735.422852	8057.832520
734.224609	8216.576172
733.027344	8487.939453
731.829102	8496.266602
730.630859	8477.469727
729.431641	8898.716797
728.232422	9052.878906
727.033203	9348.704102
725.833984	9696.479492
724.633789	9785.738281
723.433594	10187.384766
722.232422	10347.274414
721.032227	10292.653320
719.831055	10310.903320
718.628906	10408.214844
717.427734	10388.979492
716.225586	10359.352539
715.023438	10311.026367
713.820313	10056.926758
712.617188	10052.339844
711.414063	9989.577148
710.210938	9741.975586
709.006836	9637.785156
707.802734	9492.123047
706.598633	9599.758789
705.393555	9064.055664
704.188477	9018.222656
702.983398	8989.002930
701.777344	8721.337891
700.571289	8540.874023
699.365234	8447.543945
698.158203	8227.867188
696.952148	8279.663086
695.744141	8062.207520
694.537109	7946.311035
693.329102	7826.331543
692.121094	7915.419434
690.913086	7979.635254
689.704102	7952.809570
688.495117	7971.488770
687.286133	8012.897949
686.076172	7899.275391
684.866211	8070.854492
683.656250	7951.074707
682.445313	7845.810547
681.234375	8124.634766
680.023438	8033.826660
678.812500	8087.520020
677.600586	8174.195801
676.388672	8308.266602
675.175781	8254.617188
673.963867	8130.898926
672.750977	8132.967285
671.537109	8203.031250
670.323242	8299.838867
669.109375	8143.276855
667.895508	8328.583984
666.680664	8194.734375
665.465820	8184.428223
664.250977	8441.589844
663.036133	8371.573242
661.820313	8334.493164
660.603516	8243.978516
659.387695	8340.542969
658.170898	8321.988281
656.954102	8420.535156
655.736328	8484.118164
654.519531	8436.791016
653.300781	8315.588867
652.083008	8518.695313
650.864258	8491.908203
649.645508	8674.351563
648.426758	8415.814453
647.207031	8651.484375
645.987305	8671.826172
644.767578	8638.880859
643.546875	8497.376953
642.326172	8697.964844
641.105469	8701.887695
639.883789	8740.606445
638.662109	8789.536133
637.440430	8873.220703
636.217773	9001.860352
634.995117	9289.933594
633.772461	9338.666992
632.549805	9401.680664
631.326172	9634.256836
630.102539	9979.066406
628.877930	10178.695313
627.653320	10508.893555
626.428711	10718.487305
625.204102	10923.890625
623.978516	11504.581055
622.752930	11691.316406
621.526367	11794.350586
620.300781	11999.259766
619.074219	12312.081055
617.846680	12600.288086
616.619141	12537.974609
615.391602	12842.262695
614.164063	12977.406250
612.935547	12856.008789
611.707031	12852.698242
610.478516	12867.697266
609.249023	12709.804688
608.019531	12623.160156
