#Wave		#Intensity
1725.819336	21900.130859
1724.844727	21969.353516
1723.869141	21926.095703
1722.893555	21898.232422
1721.917969	22165.027344
1720.942383	22032.099609
1719.965820	22291.064453
1718.989258	21907.242188
1718.012695	22153.320313
1717.036133	22427.443359
1716.058594	21944.048828
1715.082031	22126.001953
1714.104492	22568.755859
1713.126953	22290.212891
1712.148438	22359.482422
1711.170898	22538.626953
1710.192383	23093.341797
1709.213867	22676.962891
1708.235352	22771.628906
1707.255859	22587.894531
1706.277344	23213.599609
1705.297852	23137.058594
1704.318359	23310.654297
1703.337891	23341.287109
1702.358398	23695.878906
1701.377930	24022.261719
1700.397461	23968.572266
1699.416992	23999.035156
1698.435547	24139.078125
1697.455078	24449.787109
1696.473633	24373.123047
1695.492188	24788.074219
1694.510742	24994.031250
1693.528320	24606.689453
1692.545898	25255.496094
1691.563477	25349.240234
1690.581055	25389.515625
1689.598633	25294.953125
1688.615234	25775.191406
1687.631836	25792.458984
1686.648438	26407.109375
1685.665039	26241.242188
1684.681641	26192.332031
1683.697266	26417.808594
1682.712891	26762.558594
1681.728516	26766.890625
1680.743164	26783.914063
1679.758789	27108.052734
1678.773438	27130.068359
1677.788086	27644.271484
1676.802734	27666.160156
1675.816406	27485.158203
1674.831055	27760.615234
1673.844727	28137.347656
1672.858398	28052.664063
1671.871094	28302.478516
1670.884766	28521.785156
1669.897461	28444.669922
1668.910156	28777.794922
1667.922852	28543.697266
1666.934570	28972.833984
1665.947266	29027.269531
1664.958984	28790.740234
1663.970703	28708.603516
1662.981445	28881.916016
1661.993164	28822.548828
1661.003906	28603.958984
1660.014648	29345.796875
1659.025391	29470.812500
1658.035156	29358.318359
1657.045898	29008.468750
1656.055664	28886.023438
1655.065430	28768.677734
1654.074219	28795.246094
1653.083984	29046.378906
1652.092773	28805.457031
1651.101563	28302.320313
1650.110352	28218.007813
1649.119141	27921.953125
1648.126953	28268.785156
1647.134766	27897.242188
1646.142578	28039.845703
1645.150391	27643.324219
1644.157227	27549.185547
1643.165039	27296.458984
1642.171875	27333.337891
1641.178711	27460.802734
1640.184570	27263.615234
1639.191406	26998.589844
1638.197266	26768.890625
1637.203125	26589.582031
1636.208008	26908.136719
1635.213867	27080.767578
1634.218750	26853.757813
1633.223633	26679.609375
1632.228516	26656.248047
1631.233398	26811.201172
1630.237305	26699.941406
1629.241211	26546.054688
1628.245117	26620.617188
1627.249023	26772.933594
1626.252930	26711.947266
1625.255859	26455.357422
1624.258789	26329.267578
1623.261719	26717.169922
1622.263672	26726.427734
1621.266602	26913.599609
1620.268555	26852.658203
1619.270508	26709.082031
1618.272461	27083.957031
1617.273438	26672.490234
1616.275391	27280.007813
1615.276367	27143.968750
1614.277344	27133.093750
1613.277344	26721.968750
1612.278320	26831.238281
1611.278320	26790.429688
1610.278320	27124.632813
1609.278320	27106.269531
1608.277344	27070.423828
1607.277344	27124.533203
1606.276367	27355.960938
1605.275391	27419.970703
1604.273438	27294.203125
1603.272461	26903.890625
1602.270508	27262.441406
1601.268555	26732.578125
1600.266602	26971.269531
1599.263672	26713.544922
1598.260742	26889.798828
1597.258789	26911.412109
1596.254883	26795.931641
1595.251953	26658.074219
1594.249023	27163.041016
1593.245117	27017.689453
1592.241211	26849.988281
1591.237305	26774.476563
1590.232422	26873.240234
1589.227539	27158.609375
1588.223633	26926.328125
1587.217773	27206.583984
1586.212891	27357.394531
1585.208008	27436.029297
1584.202148	27534.515625
1583.196289	27600.650391
1582.189453	27492.812500
1581.183594	27541.533203
1580.176758	27801.357422
1579.169922	27810.257813
1578.163086	27776.945313
1577.156250	27860.310547
1576.148438	28154.582031
1575.141602	28275.044922
1574.133789	28345.841797
1573.125000	28074.359375
1572.117188	27966.640625
1571.108398	28374.599609
1570.099609	27867.830078
1569.090820	27552.076172
1568.082031	27548.611328
1567.072266	27795.308594
1566.063477	27623.398438
1565.053711	27454.039063
1564.042969	27609.009766
1563.033203	27486.742188
1562.022461	27681.224609
1561.011719	27410.574219
1560.000977	27543.156250
1558.990234	27163.857422
1557.978516	27420.037109
1556.966797	27826.869141
1555.955078	27810.984375
1554.943359	28002.625000
1553.931641	27643.388672
1552.918945	28185.634766
1551.906250	27525.310547
1550.893555	27558.869141
1549.880859	27969.986328
1548.867188	27993.562500
1547.853516	27812.390625
1546.839844	27470.992188
1545.826172	27539.041016
1544.811523	27533.105469
1543.797852	27840.175781
1542.783203	27651.833984
1541.768555	27419.228516
1540.752930	27556.173828
1539.738281	27505.910156
1538.722656	27179.927734
1537.707031	27656.509766
1536.690430	27534.886719
1535.674805	27565.859375
1534.658203	27508.261719
1533.641602	27679.404297
1532.625000	27811.130859
1531.608398	27876.425781
1530.590820	27860.587891
1529.573242	27579.380859
1528.555664	27600.462891
1527.538086	27714.865234
1526.519531	27642.591797
1525.501953	27891.962891
1524.483398	28011.134766
1523.463867	28061.541016
1522.445313	27655.578125
1521.425781	27904.726563
1520.407227	27773.640625
1519.386719	28044.720703
1518.367188	27832.765625
1517.347656	27858.628906
1516.327148	27965.341797
1515.306641	27922.570313
1514.286133	28139.435547
1513.264648	27780.757813
1512.244141	28071.003906
1511.222656	28162.863281
1510.201172	28195.951172
1509.178711	28260.828125
1508.157227	28208.263672
1507.134766	28224.197266
1506.112305	28171.662109
1505.089844	28334.263672
1504.066406	28672.759766
1503.042969	28461.333984
1502.019531	28738.580078
1500.996094	28539.439453
1499.972656	28540.617188
1498.948242	28751.748047
1497.923828	28967.669922
1496.899414	28790.607422
1495.875000	28972.267578
1494.850586	29107.501953
1493.825195	29125.619141
1492.799805	29241.253906
1491.774414	29744.425781
1490.748047	29728.269531
1489.722656	30101.976563
1488.696289	30219.732422
1487.669922	30364.226563
1486.642578	30725.376953
1485.616211	30721.191406
1484.588867	31189.201172
1483.561523	31102.177734
1482.534180	31071.146484
1481.505859	31327.152344
1480.478516	31206.103516
1479.450195	31758.595703
1478.421875	31897.603516
1477.392578	31331.755859
1476.364258	31791.525391
1475.334961	31587.904297
1474.305664	32040.130859
1473.276367	32392.605469
1472.246094	32140.425781
1471.216797	32429.617188
1470.186523	32449.320313
1469.155273	32857.199219
1468.125000	33320.687500
1467.093750	33417.785156
1466.062500	33577.875000
1465.031250	34050.601563
1464.000000	33822.722656
1462.968750	34275.800781
1461.936523	34677.812500
1460.904297	34813.234375
1459.872070	34677.390625
1458.838867	35001.582031
1457.805664	35040.023438
1456.773438	35342.214844
1455.739258	35121.691406
1454.706055	35428.566406
1453.671875	35549.101563
1452.638672	35507.585938
1451.604492	35947.125000
1450.569336	35912.789063
1449.535156	35912.292969
1448.500000	35464.890625
1447.464844	35507.964844
1446.429688	35565.503906
1445.393555	35280.207031
1444.358398	35615.332031
1443.322266	35556.976563
1442.286133	35112.628906
1441.250000	35148.472656
1440.212891	34858.742188
1439.175781	34933.195313
1438.138672	34944.945313
1437.101563	34337.324219
1436.063477	34387.742188
1435.026367	33915.398438
1433.988281	34057.402344
1432.950195	33306.015625
1431.911133	33089.386719
1430.873047	33491.414063
1429.833984	32658.810547
1428.794922	32971.738281
1427.754883	32959.812500
1426.715820	32572.742188
1425.675781	32635.435547
1424.635742	32565.894531
1423.595703	32616.541016
1422.554688	32592.681641
1421.514648	32943.570313
1420.473633	32965.281250
1419.431641	32965.367188
1418.390625	32533.335938
1417.348633	32893.527344
1416.307617	32924.820313
1415.265625	32824.144531
1414.222656	32730.708984
1413.180664	32752.416016
1412.137695	32812.472656
1411.094727	32663.962891
1410.051758	32891.761719
1409.007813	32932.578125
1407.964844	32800.898438
1406.920898	33438.046875
1405.875977	32894.476563
1404.832031	33105.210938
1403.787109	33043.011719
1402.743164	32988.011719
1401.698242	33023.945313
1400.652344	33356.449219
1399.607422	33667.281250
1398.561523	33609.796875
1397.515625	33227.257813
1396.469727	33325.226563
1395.422852	33239.175781
1394.376953	33554.468750
1393.330078	33365.707031
1392.282227	33656.953125
1391.235352	33499.281250
1390.187500	33219.957031
1389.140625	33549.218750
1388.091797	33713.726563
1387.043945	33465.539063
1385.996094	33460.683594
1384.947266	34020.855469
1383.898438	33827.578125
1382.848633	33724.933594
1381.799805	34003.539063
1380.750000	33834.203125
1379.700195	34503.226563
1378.650391	34107.660156
1377.600586	34228.820313
1376.549805	34392.769531
1375.499023	34371.046875
1374.448242	34561.054688
1373.397461	34608.273438
1372.345703	34762.476563
1371.293945	34512.453125
1370.242188	34664.230469
1369.190430	34720.882813
1368.138672	34943.816406
1367.085938	34962.375000
1366.033203	35028.417969
1364.980469	35051.695313
1363.926758	35072.582031
1362.873047	35458.945313
1361.820313	35368.214844
1360.765625	35412.734375
1359.711914	35438.261719
1358.657227	35760.179688
1357.603516	35451.347656
1356.547852	35574.019531
1355.493164	35924.125000
1354.438477	35793.136719
1353.382813	36112.246094
1352.327148	35782.347656
1351.270508	36053.960938
1350.214844	36739.699219
1349.158203	36764.859375
1348.101563	37163.843750
1347.044922	36694.496094
1345.988281	37159.542969
1344.930664	37430.488281
1343.873047	37828.972656
1342.815430	37886.941406
1341.757813	37701.488281
1340.699219	37943.726563
1339.640625	38249.625000
1338.582031	38314.523438
1337.523438	38528.128906
1336.463867	38503.234375
1335.404297	38183.363281
1334.344727	38620.992188
1333.285156	38553.625000
1332.225586	38094.796875
1331.165039	38192.621094
1330.104492	38382.335938
1329.043945	38508.332031
1327.982422	38181.855469
1326.921875	38371.441406
1325.860352	37917.945313
1324.798828	38213.464844
1323.736328	38320.515625
1322.674805	38648.765625
1321.612305	38645.062500
1320.549805	39090.734375
1319.486328	38564.738281
1318.423828	38702.148438
1317.360352	38841.851563
1316.296875	38673.550781
1315.233398	38813.191406
1314.168945	38468.738281
1313.104492	38739.910156
1312.040039	38658.664063
1310.975586	38561.015625
1309.911133	38491.578125
1308.845703	38450.332031
1307.780273	38538.164063
1306.714844	38665.835938
1305.648438	38706.667969
1304.583008	39057.027344
1303.516602	38584.289063
1302.450195	38629.789063
1301.382813	38560.433594
1300.316406	38537.968750
1299.249023	38801.292969
1298.181641	38722.570313
1297.113281	38669.632813
1296.045898	38944.453125
1294.977539	38222.113281
1293.909180	38422.027344
1292.840820	38191.394531
1291.771484	37958.519531
1290.702148	37601.808594
1289.632813	37677.761719
1288.563477	38017.808594
1287.494141	37738.425781
1286.423828	37290.941406
1285.353516	37712.593750
1284.283203	37629.621094
1283.211914	37728.800781
1282.141602	37858.281250
1281.070313	37838.335938
1279.999023	37809.066406
1278.926758	37383.226563
1277.855469	37554.636719
1276.783203	37809.917969
1275.710938	37752.687500
1274.637695	37956.531250
1273.565430	37761.804688
1272.492188	37832.753906
1271.418945	37733.632813
1270.345703	37981.531250
1269.271484	38033.750000
1268.197266	38300.093750
1267.123047	38305.667969
1266.048828	38385.695313
1264.973633	38146.996094
1263.899414	38213.058594
1262.824219	38455.804688
1261.748047	38823.968750
1260.672852	38211.183594
1259.596680	38660.562500
1258.520508	38747.335938
1257.444336	38692.386719
1256.368164	38544.574219
1255.291016	38429.328125
1254.213867	38358.226563
1253.136719	38992.609375
1252.058594	38905.171875
1250.981445	38868.800781
1249.903320	38911.285156
1248.825195	38833.187500
1247.746094	38711.078125
1246.667969	38929.695313
1245.588867	38796.027344
1244.509766	38894.062500
1243.429688	38871.621094
1242.350586	39013.585938
1241.270508	38849.910156
1240.190430	38658.527344
1239.109375	38677.796875
1238.029297	39125.039063
1236.948242	38459.562500
1235.867188	38439.539063
1234.786133	38925.835938
1233.704102	38984.300781
1232.622070	38437.281250
1231.540039	38190.851563
1230.458008	38143.175781
1229.375977	38301.054688
1228.292969	38059.425781
1227.209961	38233.406250
1226.125977	37675.714844
1225.042969	37669.722656
1223.958984	37135.460938
1222.875000	37277.187500
1221.791016	37038.390625
1220.707031	36917.265625
1219.622070	36542.660156
1218.537109	36709.730469
1217.452148	36542.671875
1216.366211	36702.750000
1215.280273	36538.062500
1214.195313	36988.152344
1213.108398	36558.765625
1212.022461	36962.617188
1210.935547	36855.527344
1209.848633	36805.984375
1208.761719	36871.445313
1207.674805	36794.324219
1206.586914	37064.335938
1205.499023	36805.644531
1204.411133	36528.679688
1203.323242	36410.339844
1202.234375	36496.453125
1201.145508	36146.253906
1200.056641	36113.003906
1198.966797	36093.539063
1197.877930	35826.257813
1196.788086	35765.566406
1195.698242	35748.476563
1194.607422	35754.320313
1193.517578	35184.714844
1192.426758	35532.199219
1191.335938	35599.949219
1190.244141	35816.589844
1189.153320	35655.183594
1188.061523	35931.250000
1186.969727	35506.585938
1185.876953	35764.246094
1184.785156	35662.484375
1183.692383	35709.488281
1182.599609	35655.816406
1181.505859	35824.003906
1180.413086	36149.886719
1179.319336	36000.132813
1178.225586	36042.421875
1177.131836	35943.019531
1176.037109	35916.757813
1174.942383	36456.937500
1173.847656	35953.324219
1172.752930	36125.687500
1171.657227	36046.902344
1170.561523	36036.609375
1169.465820	36115.292969
1168.370117	36066.203125
1167.273438	36124.312500
1166.176758	35929.324219
1165.080078	35866.621094
1163.983398	36287.074219
1162.885742	36080.777344
1161.788086	36434.929688
1160.690430	36005.500000
1159.592773	36432.363281
1158.494141	36453.839844
1157.396484	36982.820313
1156.296875	36676.507813
1155.198242	36920.839844
1154.099609	36569.179688
1153.000000	36895.281250
1151.900391	36559.691406
1150.799805	36712.906250
1149.700195	36522.929688
1148.599609	36528.406250
1147.499023	36536.152344
1146.397461	36478.039063
1145.296875	36374.539063
1144.195313	36543.457031
1143.093750	36753.144531
1141.991211	36356.972656
1140.889648	36754.863281
1139.787109	36601.511719
1138.684570	36457.292969
1137.581055	36766.480469
1136.478516	37041.535156
1135.375000	37185.050781
1134.271484	37709.054688
1133.166992	37664.378906
1132.063477	38115.578125
1130.958984	38761.250000
1129.854492	38974.363281
1128.749023	39065.187500
1127.644531	38972.734375
1126.539063	39006.972656
1125.432617	39384.886719
1124.327148	38602.910156
1123.220703	38788.625000
1122.114258	38544.921875
1121.007813	38310.359375
1119.901367	38703.796875
1118.793945	38444.460938
1117.686523	38426.796875
1116.579102	38465.566406
1115.471680	38122.953125
1114.363281	37929.386719
1113.254883	39001.289063
1112.146484	38627.199219
1111.037109	39326.449219
1109.928711	39380.718750
1108.819336	39592.710938
1107.708984	39182.761719
1106.599609	39951.070313
1105.489258	39570.496094
1104.378906	39638.136719
1103.268555	40309.019531
1102.157227	39951.113281
1101.045898	40326.863281
1099.934570	40214.300781
1098.823242	40466.121094
1097.711914	40313.093750
1096.599609	40279.277344
1095.487305	39975.773438
1094.374023	40643.093750
1093.261719	40467.683594
1092.148438	39919.523438
1091.035156	40269.781250
1089.921875	40108.035156
1088.807617	39950.843750
1087.693359	39670.304688
1086.579102	39946.253906
1085.464844	39932.738281
1084.349609	39829.531250
1083.234375	40031.261719
1082.119141	39876.519531
1081.003906	39612.039063
1079.887695	39428.324219
1078.771484	39473.160156
1077.655273	39524.687500
1076.538086	39161.996094
1075.421875	39305.335938
1074.304688	39585.113281
1073.186523	39245.015625
1072.069336	39137.703125
1070.951172	39151.191406
1069.833008	38891.902344
1068.714844	39187.082031
1067.595703	39115.617188
1066.477539	38695.632813
1065.358398	38992.878906
1064.238281	39716.539063
1063.119141	39620.441406
1061.999023	39535.542969
1060.878906	39017.722656
1059.758789	39524.273438
1058.637695	39374.750000
1057.516602	39247.593750
1056.395508	38761.507813
1055.274414	39245.347656
1054.152344	39033.605469
1053.030273	39189.609375
1051.908203	39038.113281
1050.785156	39269.757813
1049.663086	39363.242188
1048.540039	39360.953125
1047.416992	39320.824219
1046.292969	39445.371094
1045.168945	39460.847656
1044.044922	39487.433594
1042.920898	39431.730469
1041.796875	39380.492188
1040.671875	39284.824219
1039.546875	39411.402344
1038.420898	39384.628906
1037.295898	39551.101563
1036.169922	40166.050781
1035.043945	39752.816406
1033.916992	40076.664063
1032.791016	40054.187500
1031.664063	40242.480469
1030.537109	40290.941406
1029.409180	40117.625000
1028.282227	39449.980469
1027.154297	39363.371094
1026.025391	39722.214844
1024.897461	39307.679688
1023.768555	39396.132813
1022.639648	39088.144531
1021.510742	39526.410156
1020.380859	39785.179688
1019.251953	39512.710938
1018.121094	39917.375000
1016.991211	39647.203125
1015.861328	39934.437500
1014.730469	40553.175781
1013.598633	40316.187500
1012.467773	40415.210938
1011.335938	40432.437500
1010.204102	40979.792969
1009.072266	40999.078125
1007.940430	41084.589844
1006.807617	41920.570313
1005.674805	43217.398438
1004.541992	44579.816406
1003.408203	45897.484375
1002.274414	45024.617188
1001.140625	43592.117188
1000.006836	42118.390625
998.872070	40742.304688
997.738281	40435.460938
996.602539	40146.378906
995.467773	40592.996094
994.332031	40046.390625
993.196289	40285.894531
992.060547	40342.617188
990.924805	40474.121094
989.788086	39853.234375
988.651367	40360.851563
987.514648	40397.699219
986.376953	40155.343750
985.239258	40192.210938
984.101563	40015.925781
982.963867	39885.847656
981.825195	40394.921875
980.686523	40238.457031
979.547852	40014.011719
978.408203	40342.726563
977.269531	40699.804688
976.129883	40449.070313
974.989258	40376.089844
973.849609	40224.203125
972.708984	40280.636719
971.568359	40258.140625
970.427734	40557.746094
969.286133	40419.085938
968.144531	40442.550781
967.002930	40649.925781
965.861328	40531.027344
964.718750	40532.546875
963.576172	41098.589844
962.433594	40815.585938
961.290039	40607.066406
960.146484	40790.035156
959.002930	41130.308594
957.859375	41046.421875
956.714844	41148.300781
955.570313	40821.957031
954.425781	40978.429688
953.281250	40966.695313
952.135742	40865.457031
950.990234	40895.210938
949.844727	40791.843750
948.698242	40867.402344
947.552734	41259.156250
946.405273	41062.003906
945.258789	40991.375000
944.112305	41430.757813
942.964844	41525.664063
941.816406	40831.937500
940.668945	41083.734375
939.520508	41015.335938
938.372070	41232.132813
937.223633	41165.898438
936.074219	41145.378906
934.925781	40974.765625
933.776367	41513.226563
932.625977	41436.093750
931.475586	41250.300781
930.326172	41095.019531
929.174805	41096.242188
928.024414	41345.101563
926.873047	41061.753906
925.721680	40850.187500
924.570313	41109.769531
923.417969	41056.707031
922.265625	41461.480469
921.113281	40939.796875
919.960938	41207.765625
918.807617	41217.589844
917.654297	40973.781250
916.500977	41334.726563
915.346680	40731.328125
914.192383	41425.738281
913.038086	41231.898438
911.883789	41239.507813
910.728516	41543.660156
909.573242	41631.250000
908.417969	41524.066406
907.262695	41101.121094
906.106445	41569.351563
904.950195	41767.101563
903.793945	41709.683594
902.636719	42101.789063
901.479492	41599.234375
900.322266	41824.847656
899.165039	41840.871094
898.006836	41656.097656
896.848633	41654.875000
895.689453	41580.277344
894.531250	41410.781250
893.372070	41802.171875
892.212891	41738.359375
891.053711	41786.679688
889.893555	41865.148438
888.733398	41585.859375
887.573242	41741.886719
886.412109	41673.828125
885.250977	41793.140625
884.089844	41389.242188
882.928711	41954.097656
881.766602	41537.429688
880.604492	41553.375000
879.442383	41749.976563
878.279297	41729.300781
877.117188	41682.828125
875.954102	41503.113281
874.790039	41246.125000
873.626953	41502.691406
872.462891	41458.445313
871.297852	41197.339844
870.133789	41430.105469
868.968750	41181.996094
867.803711	41369.582031
866.638672	41082.980469
865.472656	40893.023438
864.306641	41207.035156
863.140625	41029.988281
861.973633	41281.656250
860.807617	41423.921875
859.640625	41795.324219
858.472656	41757.488281
857.305664	41537.671875
856.137695	41928.027344
854.968750	41729.667969
853.800781	41976.425781
852.631836	42638.042969
851.462891	42129.546875
850.293945	41683.289063
849.124023	41833.613281
847.954102	41721.003906
846.784180	41587.082031
845.613281	41231.070313
844.443359	41498.785156
843.272461	40841.929688
842.100586	40580.253906
840.929688	40905.531250
839.757813	41243.449219
838.584961	41384.972656
837.413086	41195.898438
836.240234	41348.011719
835.067383	41510.699219
833.894531	41470.875000
832.720703	42119.167969
831.546875	42164.394531
830.373047	41958.335938
829.198242	41777.917969
828.023438	41997.699219
826.848633	42221.625000
825.673828	42409.273438
824.498047	42111.925781
823.322266	42137.902344
822.146484	42008.683594
820.969727	42017.660156
819.792969	42096.742188
818.616211	42534.765625
817.439453	42116.734375
816.261719	42219.070313
815.083984	42516.636719
813.905273	42442.679688
812.727539	42901.277344
811.548828	42553.625000
810.370117	42609.050781
809.190430	42257.386719
808.010742	42408.226563
806.831055	42705.199219
805.651367	42565.605469
804.470703	42027.882813
803.290039	41964.738281
802.109375	42094.265625
800.927734	42088.269531
799.747070	41690.816406
798.564453	41805.488281
797.382813	42305.015625
796.200195	41888.750000
795.017578	42073.035156
793.834961	41623.203125
792.651367	41763.078125
791.467773	42114.113281
790.284180	42059.496094
789.100586	42621.410156
787.916016	42754.546875
786.731445	43062.769531
785.545898	42898.242188
784.361328	43305.402344
783.175781	43195.710938
781.989258	42731.882813
780.803711	42352.585938
779.617188	42194.722656
778.430664	42390.855469
777.243164	41938.187500
776.056641	41525.738281
774.868164	41062.960938
773.680664	41160.238281
772.492188	40773.515625
771.303711	40426.945313
770.115234	40961.726563
768.926758	40487.011719
767.737305	40960.546875
766.547852	41089.191406
765.357422	41398.457031
764.166992	41037.503906
762.976563	41321.414063
761.786133	41395.234375
760.594727	41492.101563
759.403320	41148.242188
758.211914	41654.203125
757.020508	41912.414063
755.828125	41461.746094
754.635742	41319.460938
753.442383	41246.402344
752.249023	40911.457031
751.055664	41353.847656
749.862305	41408.566406
748.667969	41337.625000
747.473633	41723.046875
746.279297	41599.734375
745.083984	41300.726563
743.889648	41468.316406
742.693359	41269.855469
741.498047	41594.156250
740.301758	41142.839844
739.105469	41053.250000
737.909180	41396.144531
736.711914	41260.574219
735.514648	41074.949219
734.317383	41091.906250
733.119141	41390.601563
731.920898	41278.093750
730.722656	41545.292969
729.523438	41253.437500
728.325195	41601.808594
727.125000	41787.414063
725.925781	41666.582031
724.725586	41614.554688
723.525391	41543.800781
722.325195	41481.406250
721.124023	41237.910156
719.922852	41404.558594
718.721680	41088.363281
717.519531	40876.335938
716.318359	40988.855469
715.115234	40791.500000
713.913086	40575.527344
712.709961	40810.636719
711.506836	41184.828125
710.303711	40455.828125
709.099609	40487.257813
707.895508	40603.789063
706.690430	40606.089844
705.486328	40558.585938
704.281250	40351.347656
703.076172	40592.218750
701.870117	40459.714844
700.664063	40395.683594
699.458008	40717.167969
698.250977	40499.761719
697.044922	40483.390625
695.836914	40825.304688
694.629883	39937.187500
693.421875	40094.828125
692.213867	40105.453125
691.005859	40080.898438
689.796875	40321.101563
688.587891	39862.238281
687.378906	40331.839844
686.168945	40075.738281
684.958984	40253.687500
683.749023	39811.804688
682.539063	39958.738281
681.328125	39700.902344
680.116211	39851.906250
678.905273	40122.523438
677.693359	40056.695313
676.481445	40195.101563
675.269531	40063.289063
674.056641	40741.753906
672.843750	40329.546875
671.629883	40727.351563
670.416992	40228.820313
669.203125	40504.925781
667.988281	40789.117188
666.774414	40204.472656
665.559570	40052.292969
664.344727	40027.746094
663.128906	40231.527344
661.913086	40147.296875
660.697266	39966.480469
659.480469	39617.207031
658.264648	39748.937500
657.047852	39843.617188
655.830078	40038.878906
654.612305	39944.523438
653.394531	39540.242188
652.176758	39918.062500
650.958008	39610.410156
649.739258	39588.023438
648.520508	39670.230469
647.300781	39758.535156
646.081055	39914.425781
644.861328	40510.789063
643.640625	40602.894531
642.419922	40209.550781
641.199219	40113.296875
639.977539	39830.804688
638.755859	39665.101563
637.534180	39663.156250
636.311523	39468.929688
635.088867	39669.468750
633.866211	39383.332031
632.643555	39571.511719
631.419922	39545.039063
630.196289	39643.187500
628.971680	39849.519531
627.747070	39410.535156
626.522461	39818.890625
625.297852	40082.140625
624.072266	40455.417969
622.846680	40188.039063
621.621094	40648.769531
620.394531	40416.117188
619.167969	39971.613281
617.940430	40065.261719
616.713867	39676.062500
615.486328	39769.722656
614.257813	40136.156250
613.030273	39694.296875
611.801758	40321.023438
610.572266	40160.085938
609.343750	40387.707031
608.114258	40456.597656
