#Wave		#Intensity
1725.811523	6494.143066
1724.836914	6453.122070
1723.861328	6613.194336
1722.885742	6514.364746
1721.910156	6664.104980
1720.934570	6555.061035
1719.958008	6648.384277
1718.981445	6570.116699
1718.004883	6578.919434
1717.028320	6608.192871
1716.050781	6593.954102
1715.074219	6689.724609
1714.096680	6841.721680
1713.119141	6743.056641
1712.140625	6887.305664
1711.163086	6821.901855
1710.184570	6784.635742
1709.206055	7036.084961
1708.227539	7026.885254
1707.248047	6935.969727
1706.269531	7187.220703
1705.290039	6864.020508
1704.310547	7189.187500
1703.330078	7264.163574
1702.350586	7293.189941
1701.370117	7505.832520
1700.389648	7588.339844
1699.409180	7489.811523
1698.427734	7694.625000
1697.447266	7828.000488
1696.465820	7780.436523
1695.484375	8061.464355
1694.502930	8029.148926
1693.520508	8259.080078
1692.538086	8458.367188
1691.555664	8695.739258
1690.573242	8752.363281
1689.590820	8801.331055
1688.607422	9107.138672
1687.624023	9143.294922
1686.640625	9357.379883
1685.657227	9487.500977
1684.672852	9637.893555
1683.689453	9750.114258
1682.705078	9867.365234
1681.720703	9949.014648
1680.735352	10035.706055
1679.750977	10165.508789
1678.765625	10272.415039
1677.780273	10409.720703
1676.794922	10610.380859
1675.808594	10597.928711
1674.823242	11052.003906
1673.836914	10778.366211
1672.849609	11320.906250
1671.863281	11331.114258
1670.876953	11551.576172
1669.889648	11493.345703
1668.902344	11404.754883
1667.915039	11744.041016
1666.926758	11946.502930
1665.938477	11781.956055
1664.951172	11657.959961
1663.961914	11989.306641
1662.973633	11733.818359
1661.985352	11872.854492
1660.996094	12006.773438
1660.006836	12183.597656
1659.017578	11872.701172
1658.027344	12024.215820
1657.038086	11824.613281
1656.047852	11988.696289
1655.057617	12076.974609
1654.066406	11799.248047
1653.076172	11877.435547
1652.084961	11670.510742
1651.093750	11723.468750
1650.102539	11173.713867
1649.111328	11191.458984
1648.119141	10795.815430
1647.126953	10785.914063
1646.134766	10748.301758
1645.142578	10463.844727
1644.149414	10484.242188
1643.157227	10131.983398
1642.164063	10235.515625
1641.169922	9966.516602
1640.176758	9944.226563
1639.182617	9730.751953
1638.189453	9570.188477
1637.195313	9766.769531
1636.200195	9661.576172
1635.206055	9571.509766
1634.210938	9426.196289
1633.215820	9275.920898
1632.220703	9248.792969
1631.225586	9116.200195
1630.229492	9141.844727
1629.233398	9144.885742
1628.237305	9090.202148
1627.241211	8982.848633
1626.244141	9106.335938
1625.248047	8918.765625
1624.250977	9012.122070
1623.253906	8960.032227
1622.255859	9138.557617
1621.258789	8906.036133
1620.260742	9277.410156
1619.262695	9200.257813
1618.264648	9070.548828
1617.265625	9088.616211
1616.267578	9059.115234
1615.268555	9249.861328
1614.268555	9077.715820
1613.269531	9093.263672
1612.270508	8858.700195
1611.270508	9146.843750
1610.270508	9187.365234
1609.270508	8967.928711
1608.269531	8903.518555
1607.268555	8726.709961
1606.267578	8912.158203
1605.266602	9055.073242
1604.265625	8808.437500
1603.263672	8826.502930
1602.262695	8804.630859
1601.260742	8722.884766
1600.257813	8506.467773
1599.255859	8544.534180
1598.252930	8664.869141
1597.250000	8590.701172
1596.247070	8681.064453
1595.244141	8634.335938
1594.240234	8525.343750
1593.237305	8451.269531
1592.233398	8566.486328
1591.228516	8604.471680
1590.224609	8510.513672
1589.219727	8513.653320
1588.214844	8489.421875
1587.209961	8552.265625
1586.205078	8488.244141
1585.199219	8521.222656
1584.194336	8487.065430
1583.188477	8445.466797
1582.181641	8461.038086
1581.175781	8327.541016
1580.168945	8395.290039
1579.162109	8400.928711
1578.155273	8346.977539
1577.148438	8600.843750
1576.140625	8397.972656
1575.132813	8202.631836
1574.125000	8587.834961
1573.117188	8615.743164
1572.109375	8383.288086
1571.100586	8312.067383
1570.091797	8468.895508
1569.083008	8315.916016
1568.074219	8492.494141
1567.064453	8634.319336
1566.054688	8632.457031
1565.044922	8546.418945
1564.035156	8514.872070
1563.025391	8612.024414
1562.014648	8565.631836
1561.003906	8346.103516
1559.993164	8566.883789
1558.982422	8577.399414
1557.970703	8449.475586
1556.958984	8633.017578
1555.947266	8636.098633
1554.935547	8557.652344
1553.922852	8733.641602
1552.911133	8665.084961
1551.898438	8576.806641
1550.885742	8611.982422
1549.872070	8597.787109
1548.859375	8697.091797
1547.845703	8525.012695
1546.832031	8602.092773
1545.818359	8563.253906
1544.803711	8568.803711
1543.789063	8616.249023
1542.775391	8700.633789
1541.759766	8582.972656
1540.745117	8512.158203
1539.729492	8653.147461
1538.714844	8528.185547
1537.699219	8624.803711
1536.682617	8768.137695
1535.666992	8419.337891
1534.650391	8833.234375
1533.633789	8787.063477
1532.617188	8647.479492
1531.599609	8748.861328
1530.583008	8611.802734
1529.565430	8725.434570
1528.547852	8851.299805
1527.530273	8699.569336
1526.511719	8950.621094
1525.493164	8789.113281
1524.474609	8968.854492
1523.456055	8775.510742
1522.437500	8837.410156
1521.417969	8788.899414
1520.398438	8755.125000
1519.378906	8836.602539
1518.359375	8952.364258
1517.338867	8791.131836
1516.319336	9009.764648
1515.298828	8836.339844
1514.277344	8890.768555
1513.256836	8636.634766
1512.235352	8977.521484
1511.213867	8941.320313
1510.192383	8956.523438
1509.170898	8736.845703
1508.148438	8937.988281
1507.126953	8830.904297
1506.103516	8995.263672
1505.081055	8878.433594
1504.058594	8871.633789
1503.035156	8911.260742
1502.011719	9153.633789
1500.988281	9017.329102
1499.964844	8949.456055
1498.940430	9159.925781
1497.916016	9106.695313
1496.891602	9148.658203
1495.867188	8995.421875
1494.841797	8905.670898
1493.817383	9040.320313
1492.791992	9230.990234
1491.765625	8951.107422
1490.740234	9124.653320
1489.713867	9305.433594
1488.688477	9322.916992
1487.661133	9191.823242
1486.634766	9503.963867
1485.608398	9574.951172
1484.581055	9580.190430
1483.553711	9724.134766
1482.526367	9758.533203
1481.498047	9741.835938
1480.469727	9854.036133
1479.442383	10058.579102
1478.413086	10221.709961
1477.384766	10316.719727
1476.356445	10613.362305
1475.327148	10630.509766
1474.297852	10997.388672
1473.267578	11351.968750
1472.238281	11313.106445
1471.208008	11504.842773
1470.177734	11567.883789
1469.147461	11892.918945
1468.117188	12319.689453
1467.085938	12244.281250
1466.054688	12374.994141
1465.023438	12905.616211
1463.992188	13150.034180
1462.959961	13149.623047
1461.927734	13343.008789
1460.895508	13400.681641
1459.863281	13632.672852
1458.831055	13670.889648
1457.797852	13726.031250
1456.764648	13740.011719
1455.731445	13826.565430
1454.698242	14092.074219
1453.664063	14338.121094
1452.629883	14378.549805
1451.595703	14762.210938
1450.561523	14705.859375
1449.526367	14709.937500
1448.492188	14863.786133
1447.457031	14850.919922
1446.421875	14804.253906
1445.385742	14530.677734
1444.349609	14628.916016
1443.314453	14114.184570
1442.277344	14021.875000
1441.241211	13876.540039
1440.205078	13593.808594
1439.167969	13438.983398
1438.130859	13002.195313
1437.093750	12849.971680
1436.055664	12353.262695
1435.017578	12389.139648
1433.979492	11979.445313
1432.941406	11752.926758
1431.903320	11625.207031
1430.864258	11521.610352
1429.825195	11230.364258
1428.786133	11085.997070
1427.747070	10922.450195
1426.707031	11076.403320
1425.667969	11148.544922
1424.627930	10929.801758
1423.586914	10970.700195
1422.546875	11042.816406
1421.505859	10857.866211
1420.464844	10999.622070
1419.423828	11050.072266
1418.382813	11014.078125
1417.340820	10860.493164
1416.298828	10889.341797
1415.256836	11040.531250
1414.214844	11011.762695
1413.171875	11045.355469
1412.129883	11090.919922
1411.086914	10911.146484
1410.042969	11170.005859
1409.000000	11066.962891
1407.956055	11069.362305
1406.912109	11019.072266
1405.868164	11043.030273
1404.824219	11174.702148
1403.779297	11224.941406
1402.734375	10916.229492
1401.689453	11088.511719
1400.644531	11241.583984
1399.598633	11353.937500
1398.553711	11267.804688
1397.506836	11387.273438
1396.460938	11315.508789
1395.415039	11353.679688
1394.368164	11241.342773
1393.321289	11487.286133
1392.274414	11444.210938
1391.227539	11360.572266
1390.179688	11183.888672
1389.131836	11274.529297
1388.083984	11513.039063
1387.036133	11362.671875
1385.987305	11457.982422
1384.938477	11491.264648
1383.889648	11464.942383
1382.840820	11407.651367
1381.791992	11450.451172
1380.742188	11402.713867
1379.692383	11207.344727
1378.642578	11462.065430
1377.591797	11461.964844
1376.541992	11371.424805
1375.491211	11459.381836
1374.440430	11625.803711
1373.388672	11559.069336
1372.337891	11632.659180
1371.286133	11456.590820
1370.234375	11613.359375
1369.182617	11774.812500
1368.129883	11715.241211
1367.077148	11850.471680
1366.024414	11764.786133
1364.971680	12042.403320
1363.918945	12025.550781
1362.865234	12219.924805
1361.811523	12105.757813
1360.757813	12003.500000
1359.704102	12105.252930
1358.649414	12365.832031
1357.594727	12211.426758
1356.540039	12334.398438
1355.485352	12492.861328
1354.429688	12670.207031
1353.374023	12871.161133
1352.318359	13036.505859
1351.262695	13253.865234
1350.207031	13177.609375
1349.150391	13378.276367
1348.093750	13517.336914
1347.037109	13573.541992
1345.979492	13797.639648
1344.922852	14139.866211
1343.865234	14271.544922
1342.806641	14646.606445
1341.749023	14381.134766
1340.690430	14682.771484
1339.632813	14844.919922
1338.574219	14730.707031
1337.514648	14559.880859
1336.456055	14603.926758
1335.396484	14777.747070
1334.336914	14550.393555
1333.277344	14719.429688
1332.216797	14808.207031
1331.156250	14694.169922
1330.095703	15006.859375
1329.035156	14760.843750
1327.974609	14894.300781
1326.913086	14766.204102
1325.851563	14934.929688
1324.790039	14769.201172
1323.728516	15090.877930
1322.666016	15082.887695
1321.603516	15096.079102
1320.541016	15170.434570
1319.478516	15378.833008
1318.415039	15180.293945
1317.351563	15383.895508
1316.288086	15371.143555
1315.224609	15400.699219
1314.161133	15084.840820
1313.096680	15119.142578
1312.032227	15169.868164
1310.967773	15171.260742
1309.902344	14872.155273
1308.836914	14655.329102
1307.771484	14863.329102
1306.706055	14639.558594
1305.640625	14680.933594
1304.574219	14771.536133
1303.507813	14496.347656
1302.441406	14359.577148
1301.375000	14405.660156
1300.307617	14325.199219
1299.240234	14495.419922
1298.172852	14187.798828
1297.105469	14107.434570
1296.037109	14256.519531
1294.969727	14094.257813
1293.901367	14063.101563
1292.832031	14162.967773
1291.763672	13984.456055
1290.694336	14070.262695
1289.625000	14078.879883
1288.555664	13979.972656
1287.485352	14226.965820
1286.416016	13838.355469
1285.345703	14082.934570
1284.274414	14121.893555
1283.204102	14151.495117
1282.132813	13856.610352
1281.061523	13769.564453
1279.990234	14104.884766
1278.918945	13959.499023
1277.846680	13816.508789
1276.774414	14065.320313
1275.702148	13854.759766
1274.629883	13963.605469
1273.556641	13993.173828
1272.483398	13878.284180
1271.410156	13933.477539
1270.336914	14060.835938
1269.262695	14148.558594
1268.189453	13803.288086
1267.115234	13877.062500
1266.040039	14001.991211
1264.965820	13826.787109
1263.890625	13921.435547
1262.815430	14057.895508
1261.740234	13964.153320
1260.664063	14026.167969
1259.588867	13737.288086
1258.512695	13999.111328
1257.435547	13859.007813
1256.359375	13846.679688
1255.282227	14022.405273
1254.205078	13815.074219
1253.127930	13888.622070
1252.050781	13922.695313
1250.972656	13891.805664
1249.894531	14027.898438
1248.816406	14038.730469
1247.738281	13933.654297
1246.659180	14039.518555
1245.580078	14013.264648
1244.500977	13850.347656
1243.421875	13898.256836
1242.341797	13883.625000
1241.261719	13878.258789
1240.181641	13710.881836
1239.101563	13862.902344
1238.020508	13922.317383
1236.939453	13583.879883
1235.858398	13569.330078
1234.777344	13503.922852
1233.696289	13563.360352
1232.614258	13430.964844
1231.532227	13328.662109
1230.449219	13334.967773
1229.367188	13422.097656
1228.284180	13303.698242
1227.201172	13102.250000
1226.118164	12956.277344
1225.034180	13091.863281
1223.951172	12915.965820
1222.867188	12659.423828
1221.782227	12776.536133
1220.698242	12822.130859
1219.613281	12644.138672
1218.528320	12597.568359
1217.443359	12495.727539
1216.358398	12426.175781
1215.272461	12474.094727
1214.186523	12409.181641
1213.100586	12408.744141
1212.013672	12410.607422
1210.927734	12559.715820
1209.840820	12552.341797
1208.752930	12515.074219
1207.666016	12461.726563
1206.578125	12583.103516
1205.490234	12759.582031
1204.402344	12485.634766
1203.314453	12386.392578
1202.225586	12142.503906
1201.136719	12107.671875
1200.047852	11914.455078
1198.958984	11684.599609
1197.869141	11718.728516
1196.779297	11640.428711
1195.689453	11713.541992
1194.599609	11532.085938
1193.508789	11426.364258
1192.417969	11453.631836
1191.327148	11561.090820
1190.236328	11581.440430
1189.144531	11480.379883
1188.052734	11361.041992
1186.960938	11353.944336
1185.869141	11440.700195
1184.776367	11804.331055
1183.683594	11616.381836
1182.590820	11545.178711
1181.498047	11542.617188
1180.404297	11494.325195
1179.310547	11606.074219
1178.216797	11843.475586
1177.123047	11943.670898
1176.028320	11995.846680
1174.933594	12034.292969
1173.838867	12205.164063
1172.744141	12428.464844
1171.648438	12523.848633
1170.553711	12411.531250
1169.457031	12326.639648
1168.361328	12472.159180
1167.264648	12083.992188
1166.168945	12101.823242
1165.072266	11868.910156
1163.974609	12048.581055
1162.877930	11977.546875
1161.780273	12022.715820
1160.682617	12209.061523
1159.583984	12083.390625
1158.486328	12105.738281
1157.387695	12332.903320
1156.289063	12032.083008
1155.189453	11977.080078
1154.090820	12138.162109
1152.991211	12117.264648
1151.891602	11830.395508
1150.791992	11709.569336
1149.691406	11900.103516
1148.590820	11911.078125
1147.490234	11572.267578
1146.389648	11558.329102
1145.288086	11501.261719
1144.186523	11482.803711
1143.084961	11727.588867
1141.983398	11606.992188
1140.880859	11438.815430
1139.778320	11481.613281
1138.675781	11655.890625
1137.573242	11619.283203
1136.469727	11702.800781
1135.366211	12028.711914
1134.262695	12257.071289
1133.159180	12023.328125
1132.054688	12373.851563
1130.950195	12572.548828
1129.845703	12698.734375
1128.741211	12768.294922
1127.635742	12959.980469
1126.530273	12945.767578
1125.424805	12920.253906
1124.318359	12915.096680
1123.212891	12973.223633
1122.106445	12622.330078
1121.000000	12470.394531
1119.892578	12535.355469
1118.785156	12365.440430
1117.678711	12448.453125
1116.570313	12468.229492
1115.462891	12282.644531
1114.354492	12480.676758
1113.246094	12504.938477
1112.137695	12495.363281
1111.029297	12521.863281
1109.919922	12683.593750
1108.810547	12813.700195
1107.701172	12997.820313
1106.590820	13069.229492
1105.480469	13124.840820
1104.370117	13331.278320
1103.259766	13285.506836
1102.149414	13410.793945
1101.038086	13401.022461
1099.926758	13175.302734
1098.814453	13197.072266
1097.703125	13113.152344
1096.590820	13101.203125
1095.478516	13271.303711
1094.366211	13050.354492
1093.252930	13047.410156
1092.139648	13152.270508
1091.026367	13104.392578
1089.913086	13132.863281
1088.798828	12941.365234
1087.684570	12929.465820
1086.570313	12886.163086
1085.456055	13138.942383
1084.340820	13088.881836
1083.225586	13110.583008
1082.110352	12973.134766
1080.995117	13093.448242
1079.878906	13023.274414
1078.762695	12906.093750
1077.646484	12878.539063
1076.530273	12857.711914
1075.413086	12879.421875
1074.295898	12977.206055
1073.178711	13283.017578
1072.060547	13069.745117
1070.942383	13024.291992
1069.824219	12985.566406
1068.706055	13134.621094
1067.587891	13064.597656
1066.468750	13054.929688
1065.349609	13215.032227
1064.230469	13138.333984
1063.110352	13331.833984
1061.990234	13281.927734
1060.870117	13205.262695
1059.750000	13237.960938
1058.628906	13306.334961
1057.507813	13403.669922
1056.386719	13121.906250
1055.265625	13085.483398
1054.143555	13149.367188
1053.021484	13284.522461
1051.899414	13234.716797
1050.777344	13155.978516
1049.654297	13155.208984
1048.531250	13170.020508
1047.408203	13064.638672
1046.284180	13081.687500
1045.161133	13005.291016
1044.037109	13033.462891
1042.912109	12966.004883
1041.788086	13083.094727
1040.663086	12893.409180
1039.538086	13152.674805
1038.413086	13114.125000
1037.287109	12893.462891
1036.161133	13156.987305
1035.035156	13147.320313
1033.909180	13182.047852
1032.782227	13332.149414
1031.655273	13644.135742
1030.528320	13352.666992
1029.400391	13254.257813
1028.273438	12967.443359
1027.145508	12953.391602
1026.017578	13072.306641
1024.888672	12648.364258
1023.759766	12678.691406
1022.630859	12724.504883
1021.501953	12781.365234
1020.373047	12944.445313
1019.243164	12751.161133
1018.113281	12484.952148
1016.982422	12760.793945
1015.852539	12417.300781
1014.721680	12454.247070
1013.590820	12418.229492
1012.458984	12696.038086
1011.328125	12810.219727
1010.196289	12694.620117
1009.063477	12724.828125
1007.931641	12922.820313
1006.798828	13173.696289
1005.666016	13868.040039
1004.533203	14553.236328
1003.399414	15756.494141
1002.266602	15922.677734
1001.131836	15361.182617
999.998047	13999.769531
998.864258	13762.936523
997.729492	13475.534180
996.593750	13395.328125
995.458984	13420.868164
994.323242	13235.022461
993.187500	13529.142578
992.051758	13475.401367
990.916016	13771.526367
989.779297	13715.550781
988.642578	13732.175781
987.505859	13539.909180
986.368164	13686.259766
985.230469	13656.721680
984.092773	13888.666016
982.955078	13909.616211
981.816406	13869.061523
980.677734	13848.285156
979.539063	13783.613281
978.400391	13901.127930
977.260742	13786.003906
976.121094	14078.954102
974.981445	13948.487305
973.840820	13905.784180
972.700195	14189.729492
971.559570	13888.375000
970.418945	14200.673828
969.277344	13912.596680
968.135742	14058.292969
966.994141	14048.458984
965.852539	14270.670898
964.709961	14149.169922
963.567383	14349.371094
962.424805	14505.726563
961.281250	14535.157227
960.137695	14214.726563
958.994141	14495.602539
957.850586	14739.192383
956.706055	14687.688477
955.562500	14655.868164
954.416992	14534.517578
953.272461	14581.349609
952.126953	14536.472656
950.981445	14437.053711
949.835938	14590.787109
948.689453	14519.756836
947.543945	14581.795898
946.397461	14637.262695
945.250000	14574.985352
944.103516	14650.039063
942.956055	14781.707031
941.808594	14512.487305
940.660156	14763.906250
939.511719	14832.306641
938.363281	14761.352539
937.214844	14849.304688
936.066406	14721.804688
934.916992	14851.052734
933.767578	14819.300781
932.617188	14850.617188
931.467773	14758.009766
930.317383	14837.134766
929.166016	14399.095703
928.015625	14428.301758
926.864258	14440.118164
925.712891	14341.192383
924.561523	14424.654297
923.409180	14321.434570
922.256836	14378.822266
921.104492	14475.226563
919.952148	14248.446289
918.798828	14101.993164
917.645508	14044.483398
916.492188	14091.023438
915.337891	13933.872070
914.183594	13850.443359
913.029297	14050.751953
911.875000	14010.633789
910.719727	14011.661133
909.564453	14110.071289
908.409180	14188.960938
907.253906	14142.351563
906.097656	14333.647461
904.941406	14663.223633
903.785156	14374.434570
902.627930	14546.084961
901.470703	14495.115234
900.313477	14439.848633
899.156250	14518.497070
897.998047	14379.044922
896.839844	14390.752930
895.681641	14372.241211
894.522461	14077.579102
893.363281	14244.646484
892.204102	14357.720703
891.044922	14117.165039
889.884766	14187.103516
888.724609	13851.880859
887.564453	13850.750000
886.403320	13925.004883
885.242188	13885.091797
884.081055	13720.330078
882.919922	14029.166016
881.757813	13731.028320
880.595703	13641.710938
879.433594	13597.602539
878.270508	13381.487305
877.108398	13128.925781
875.945313	13366.524414
874.781250	13137.719727
873.618164	13138.888672
872.454102	13086.360352
871.289063	13154.102539
870.125000	12869.744141
868.959961	13149.979492
867.794922	13183.321289
866.629883	13298.163086
865.463867	13387.211914
864.297852	13384.016602
863.131836	13541.596680
861.964844	13491.212891
860.798828	13781.532227
859.631836	13971.031250
858.463867	13770.661133
857.296875	14214.861328
856.128906	13922.479492
854.959961	14242.300781
853.791992	14076.283203
852.623047	14532.811523
851.454102	14418.125977
850.285156	14324.873047
849.115234	14321.439453
847.945313	13830.765625
846.775391	13577.477539
845.604492	13386.252930
844.434570	13071.259766
843.262695	12863.165039
842.091797	12921.974609
840.919922	12961.548828
839.749023	12873.096680
838.576172	12675.906250
837.404297	12741.094727
836.231445	12844.624023
835.058594	12896.948242
833.884766	13294.445313
832.711914	12984.473633
831.538086	13268.874023
830.364258	13465.833008
829.189453	13279.508789
828.014648	13197.559570
826.839844	13270.976563
825.665039	13286.919922
824.489258	13007.234375
823.313477	13146.551758
822.137695	12711.853516
820.960938	12362.372070
819.784180	12644.093750
818.607422	12396.754883
817.430664	12372.519531
816.252930	12002.219727
815.075195	12220.070313
813.896484	12100.393555
812.718750	12144.138672
811.540039	11963.023438
810.361328	12095.841797
809.181641	11853.340820
808.001953	11954.325195
806.822266	11720.448242
805.642578	11929.457031
804.461914	11869.374023
803.281250	11894.019531
802.100586	11778.929688
800.918945	11769.717773
799.738281	11612.390625
798.555664	11835.919922
797.374023	11981.084961
796.191406	11654.664063
795.008789	11776.546875
793.826172	11693.370117
792.642578	11669.392578
791.458984	11837.649414
790.275391	11756.625977
789.091797	11724.200195
787.907227	11957.750977
786.722656	11553.875977
785.537109	11795.790039
784.352539	12001.726563
783.166992	11830.094727
781.980469	11747.090820
780.794922	11936.021484
779.608398	11844.600586
778.421875	11940.716797
777.234375	11920.945313
776.046875	12023.309570
774.859375	12249.826172
773.671875	12145.802734
772.483398	12081.807617
771.294922	11952.629883
770.106445	12130.563477
768.917969	12053.998047
767.728516	12051.039063
766.539063	11999.746094
765.348633	12017.808594
764.158203	12250.112305
762.967773	12236.601563
761.777344	12279.782227
760.585938	12337.631836
759.394531	12426.927734
758.203125	12268.623047
757.010742	12641.037109
755.819336	12445.010742
754.625977	12574.015625
753.433594	12612.833984
752.240234	12582.484375
751.046875	12483.019531
749.853516	12586.749023
748.659180	12642.268555
747.464844	12614.028320
746.270508	12807.630859
745.075195	12482.262695
743.879883	12590.038086
742.684570	12798.136719
741.489258	12673.711914
740.292969	12451.108398
739.096680	12318.467773
737.900391	12413.607422
736.703125	12352.050781
735.505859	12321.844727
734.308594	12343.841797
733.110352	12161.293945
731.912109	11966.315430
730.713867	12174.034180
729.514648	12244.004883
728.315430	12136.714844
727.116211	12085.756836
725.916992	12232.797852
724.716797	12144.335938
723.516602	12201.720703
722.316406	12157.037109
721.115234	12112.373047
719.914063	11924.117188
718.712891	12054.321289
717.510742	11970.184570
716.308594	12056.632813
715.106445	12132.639648
713.904297	11876.003906
712.701172	12188.934570
711.498047	12167.192383
710.293945	11956.433594
709.090820	11814.308594
707.886719	11996.135742
706.681641	11849.916016
705.477539	11867.704102
704.272461	11704.990234
703.066406	11814.062500
701.861328	11618.261719
700.655273	11646.448242
699.449219	11871.509766
698.242188	11771.149414
697.035156	11610.763672
695.828125	11854.298828
694.621094	11727.096680
693.413086	11693.104492
692.205078	11787.430664
690.997070	11701.713867
689.788086	11715.320313
688.579102	11633.796875
687.370117	11544.042969
686.160156	11623.811523
684.950195	11527.903320
683.740234	11564.250977
682.529297	11464.270508
681.318359	11698.828125
680.107422	11700.007813
678.896484	11666.102539
677.684570	11601.264648
676.472656	11567.397461
675.259766	11401.568359
674.047852	11592.481445
672.834961	11455.582031
671.621094	11596.927734
670.408203	11610.476563
669.194336	11638.433594
667.979492	11767.265625
666.765625	11525.502930
665.550781	11534.932617
664.334961	11542.297852
663.120117	11580.512695
661.904297	11567.294922
660.688477	11500.629883
659.471680	11495.657227
658.254883	11463.971680
657.038086	11652.113281
655.821289	11647.100586
654.603516	11566.117188
653.385742	11520.070313
652.166992	11597.178711
650.949219	11512.160156
649.730469	11640.507813
648.510742	11537.061523
647.291992	11579.227539
646.072266	11861.175781
644.851563	11960.608398
643.631836	12195.194336
642.411133	12138.834961
641.189453	12031.313477
639.968750	12011.867188
638.747070	11779.592773
637.525391	11608.815430
636.302734	11442.213867
635.080078	11463.828125
633.857422	11444.541016
632.633789	11486.579102
631.411133	11363.082031
630.186523	11425.542969
628.962891	11412.405273
627.738281	11425.815430
626.513672	11506.579102
625.289063	11677.090820
624.063477	11710.820313
622.837891	11667.021484
621.611328	11941.352539
620.385742	11928.092773
619.158203	11984.133789
617.931641	11981.053711
616.704102	11535.929688
615.476563	11740.690430
614.249023	11823.181641
613.020508	11954.481445
611.791992	11699.066406
610.563477	11777.430664
609.333984	11963.550781
608.104492	11854.729492
