#Wave		#Intensity
1725.743164	10552.510742
1724.768555	10639.678711
1723.792969	10834.717773
1722.817383	10883.599609
1721.841797	10750.550781
1720.866211	10937.752930
1719.889648	10505.116211
1718.913086	10676.926758
1717.936523	10702.750000
1716.959961	10818.136719
1715.982422	10841.359375
1715.005859	10864.571289
1714.028320	11110.285156
1713.049805	11020.916992
1712.072266	11192.350586
1711.093750	11200.128906
1710.116211	11161.907227
1709.137695	11231.003906
1708.158203	11236.213867
1707.179688	11358.891602
1706.200195	11279.817383
1705.220703	11246.723633
1704.241211	11343.797852
1703.261719	11453.586914
1702.281250	11489.351563
1701.301758	11328.721680
1700.321289	11680.673828
1699.339844	11606.746094
1698.359375	11713.808594
1697.377930	11627.166016
1696.396484	11721.438477
1695.415039	11907.363281
1694.433594	12024.451172
1693.451172	11953.090820
1692.469727	11886.851563
1691.487305	12059.852539
1690.504883	12278.575195
1689.521484	12342.036133
1688.539063	12532.626953
1687.555664	12486.672852
1686.572266	12715.278320
1685.587891	12920.911133
1684.604492	12890.147461
1683.620117	12803.508789
1682.635742	13331.544922
1681.651367	13371.811523
1680.666992	13569.459961
1679.681641	13888.854492
1678.696289	14271.549805
1677.710938	14387.686523
1676.725586	15023.757813
1675.739258	15294.374023
1674.753906	15402.605469
1673.767578	16091.271484
1672.781250	17164.853516
1671.793945	17941.517578
1670.807617	18621.582031
1669.820313	19405.189453
1668.833008	20416.343750
1667.845703	21272.634766
1666.857422	22660.064453
1665.870117	23745.765625
1664.881836	26022.578125
1663.892578	28088.466797
1662.904297	30995.546875
1661.916016	34118.792969
1660.926758	37561.703125
1659.937500	41407.460938
1658.948242	44862.449219
1657.958008	48161.847656
1656.968750	49739.937500
1655.978516	51193.621094
1654.988281	52308.398438
1653.997070	51716.558594
1653.006836	49626.121094
1652.015625	47314.585938
1651.024414	43869.050781
1650.033203	40155.191406
1649.041016	36997.589844
1648.049805	33826.230469
1647.057617	30870.453125
1646.065430	28659.205078
1645.072266	25824.216797
1644.080078	23871.896484
1643.086914	22199.902344
1642.093750	20936.437500
1641.100586	19708.753906
1640.107422	18964.714844
1639.113281	18326.656250
1638.119141	17678.812500
1637.125000	17493.931641
1636.130859	16806.324219
1635.135742	16239.662109
1634.141602	15929.564453
1633.146484	15287.964844
1632.151367	15179.155273
1631.155273	14789.125977
1630.160156	14720.643555
1629.164063	14401.166992
1628.167969	14064.261719
1627.170898	14154.054688
1626.174805	13865.010742
1625.177734	13706.510742
1624.180664	13605.750977
1623.183594	13354.617188
1622.186523	12925.634766
1621.188477	12905.295898
1620.190430	12769.720703
1619.192383	12569.079102
1618.194336	12496.240234
1617.196289	12536.100586
1616.197266	12515.866211
1615.198242	12598.249023
1614.199219	12350.319336
1613.199219	12580.292969
1612.200195	12542.557617
1611.200195	12399.819336
1610.200195	12507.135742
1609.200195	12184.509766
1608.199219	12379.285156
1607.199219	12331.638672
1606.198242	12331.471680
1605.196289	12126.530273
1604.195313	12263.724609
1603.194336	12363.416016
1602.192383	12143.625977
1601.190430	12360.568359
1600.187500	12308.006836
1599.185547	12270.431641
1598.182617	12350.064453
1597.179688	12314.988281
1596.176758	12344.729492
1595.173828	12349.538086
1594.169922	11923.350586
1593.166992	12077.692383
1592.163086	12182.164063
1591.158203	11992.806641
1590.154297	12124.630859
1589.149414	11895.548828
1588.144531	11927.813477
1587.139648	11927.725586
1586.134766	12119.136719
1585.128906	11768.416016
1584.123047	12044.298828
1583.117188	11887.604492
1582.111328	11986.917969
1581.105469	12026.563477
1580.098633	11956.906250
1579.091797	12016.406250
1578.084961	11884.712891
1577.078125	11911.933594
1576.070313	11864.694336
1575.062500	12058.140625
1574.054688	12179.567383
1573.046875	11869.415039
1572.038086	11980.911133
1571.030273	12070.047852
1570.021484	11938.566406
1569.012695	12005.371094
1568.002930	11970.576172
1566.994141	12143.848633
1565.984375	11995.127930
1564.974609	12128.707031
1563.964844	11791.936523
1562.954102	11885.906250
1561.943359	12110.964844
1560.933594	11967.356445
1559.921875	11974.668945
1558.911133	12211.923828
1557.899414	12140.074219
1556.888672	12144.871094
1555.876953	12223.792969
1554.864258	12045.757813
1553.852539	12366.715820
1552.839844	12171.440430
1551.827148	12230.537109
1550.814453	12252.583008
1549.801758	12099.408203
1548.788086	12000.578125
1547.774414	12330.995117
1546.760742	12185.299805
1545.747070	12431.701172
1544.732422	12266.325195
1543.718750	12261.216797
1542.704102	12453.233398
1541.689453	12270.712891
1540.673828	12307.476563
1539.659180	12368.847656
1538.643555	12600.063477
1537.627930	12732.723633
1536.611328	12658.615234
1535.595703	12582.077148
1534.579102	12660.539063
1533.562500	12362.700195
1532.545898	12674.752930
1531.529297	12568.777344
1530.511719	12543.950195
1529.494141	12543.704102
1528.476563	12609.787109
1527.458984	12788.819336
1526.440430	12658.375000
1525.421875	12753.848633
1524.403320	12748.646484
1523.384766	12920.130859
1522.366211	12885.453125
1521.346680	12818.901367
1520.327148	12786.710938
1519.307617	12806.022461
1518.288086	13256.758789
1517.267578	13079.895508
1516.247070	12942.313477
1515.226563	13049.762695
1514.206055	13208.599609
1513.185547	12809.067383
1512.164063	13188.219727
1511.142578	13190.274414
1510.121094	13322.023438
1509.099609	13532.004883
1508.077148	13389.665039
1507.054688	13457.700195
1506.032227	13396.122070
1505.009766	13341.901367
1503.986328	13732.501953
1502.963867	13563.391602
1501.940430	13831.629883
1500.916992	13933.671875
1499.892578	13872.065430
1498.869141	13895.931641
1497.844727	14276.140625
1496.820313	14153.493164
1495.794922	14416.374023
1494.770508	14398.633789
1493.745117	14332.125977
1492.719727	14553.348633
1491.694336	14676.969727
1490.668945	14834.656250
1489.642578	14911.867188
1488.616211	15317.912109
1487.589844	15414.468750
1486.563477	15435.497070
1485.536133	15575.806641
1484.508789	15957.015625
1483.481445	16274.790039
1482.454102	16195.863281
1481.425781	16360.208008
1480.398438	16782.257813
1479.370117	16812.681641
1478.341797	17317.097656
1477.312500	17702.212891
1476.284180	18254.814453
1475.254883	18855.761719
1474.225586	19276.722656
1473.196289	20187.998047
1472.166016	20375.433594
1471.135742	21354.037109
1470.105469	22480.242188
1469.075195	23586.550781
1468.044922	24605.060547
1467.013672	25242.398438
1465.982422	26740.167969
1464.951172	27779.152344
1463.919922	28546.257813
1462.887695	29947.847656
1461.855469	31125.966797
1460.823242	32187.324219
1459.791016	33696.179688
1458.758789	35480.367188
1457.725586	36665.953125
1456.692383	37737.292969
1455.659180	38573.496094
1454.625977	39034.425781
1453.591797	39596.722656
1452.557617	40390.875000
1451.523438	41336.972656
1450.489258	41893.566406
1449.454102	42445.089844
1448.419922	43820.109375
1447.384766	44648.714844
1446.348633	46150.636719
1445.313477	47350.148438
1444.277344	49024.617188
1443.241211	50565.636719
1442.205078	51517.335938
1441.168945	53107.800781
1440.131836	54244.218750
1439.094727	54702.660156
1438.057617	54652.292969
1437.020508	53756.054688
1435.983398	52301.218750
1434.945313	50500.121094
1433.907227	47844.828125
1432.869141	43900.066406
1431.830078	40568.464844
1430.791992	36793.039063
1429.752930	33794.070313
1428.713867	30974.419922
1427.673828	28485.505859
1426.634766	26618.087891
1425.594727	25076.044922
1424.554688	23940.890625
1423.514648	23226.783203
1422.473633	22332.783203
1421.433594	21857.140625
1420.392578	21648.283203
1419.350586	21422.707031
1418.309570	21422.882813
1417.267578	21003.044922
1416.226563	21060.898438
1415.183594	21013.167969
1414.141602	21056.599609
1413.099609	21004.091797
1412.056641	20910.849609
1411.013672	20271.136719
1409.970703	20288.326172
1408.926758	19886.218750
1407.882813	19539.378906
1406.838867	19130.419922
1405.794922	18786.285156
1404.750977	18669.714844
1403.706055	18613.025391
1402.661133	18010.796875
1401.616211	17789.205078
1400.571289	17297.435547
1399.525391	17088.046875
1398.480469	16596.638672
1397.434570	16150.855469
1396.387695	15841.479492
1395.341797	15637.361328
1394.294922	15521.711914
1393.248047	15320.136719
1392.201172	15128.199219
1391.154297	15215.638672
1390.106445	15088.243164
1389.058594	14948.971680
1388.010742	14886.098633
1386.962891	14947.275391
1385.914063	14874.889648
1384.865234	15307.951172
1383.816406	14801.714844
1382.767578	15053.494141
1381.717773	15178.890625
1380.668945	15473.353516
1379.619141	15291.394531
1378.568359	15642.846680
1377.518555	15629.938477
1376.467773	15724.131836
1375.416992	15754.039063
1374.366211	16309.666992
1373.315430	16470.242188
1372.263672	16502.343750
1371.212891	16646.166016
1370.161133	17046.621094
1369.108398	17123.722656
1368.056641	17355.218750
1367.003906	17391.837891
1365.951172	17468.812500
1364.898438	17177.742188
1363.844727	17577.554688
1362.791992	17125.205078
1361.738281	17085.902344
1360.683594	17008.662109
1359.629883	16808.125000
1358.575195	16892.212891
1357.520508	16796.095703
1356.465820	16863.558594
1355.411133	17241.410156
1354.355469	17306.375000
1353.300781	17219.720703
1352.245117	17391.224609
1351.188477	17489.257813
1350.132813	17629.853516
1349.076172	17621.294922
1348.019531	17603.275391
1346.962891	17854.929688
1345.905273	17815.580078
1344.848633	17960.675781
1343.791016	18013.511719
1342.733398	18160.863281
1341.674805	18350.681641
1340.617188	18058.478516
1339.558594	18295.474609
1338.500000	17979.792969
1337.440430	18186.007813
1336.381836	18519.593750
1335.322266	18694.919922
1334.262695	19030.605469
1333.203125	19231.689453
1332.142578	19729.835938
1331.082031	19751.482422
1330.021484	20305.873047
1328.960938	20791.671875
1327.900391	21378.578125
1326.838867	22047.681641
1325.777344	22692.939453
1324.715820	22859.900391
1323.654297	24083.837891
1322.591797	24339.863281
1321.529297	24725.201172
1320.466797	25188.007813
1319.404297	25862.308594
1318.340820	26185.914063
1317.277344	26568.158203
1316.213867	27387.453125
1315.150391	27938.472656
1314.085938	28345.923828
1313.022461	29742.175781
1311.958008	30870.074219
1310.892578	31943.472656
1309.828125	33168.996094
1308.762695	34508.988281
1307.697266	35916.445313
1306.631836	37201.289063
1305.566406	38462.117188
1304.500000	39781.019531
1303.433594	40914.125000
1302.367188	41608.406250
1301.299805	41250.152344
1300.233398	41510.597656
1299.166016	40878.449219
1298.098633	40302.777344
1297.030273	38296.730469
1295.962891	37593.113281
1294.894531	35647.039063
1293.826172	33987.277344
1292.757813	32239.341797
1291.688477	31268.679688
1290.619141	30305.453125
1289.549805	29398.755859
1288.480469	28550.884766
1287.411133	28224.500000
1286.340820	27519.767578
1285.270508	27403.970703
1284.200195	26916.908203
1283.128906	26854.990234
1282.058594	26758.082031
1280.987305	27146.644531
1279.916016	27026.378906
1278.843750	27062.458984
1277.771484	27054.208984
1276.700195	27295.457031
1275.626953	27893.277344
1274.554688	28397.605469
1273.481445	28643.056641
1272.409180	29263.480469
1271.335938	29608.785156
1270.261719	29732.708984
1269.188477	30156.914063
1268.114258	30257.384766
1267.040039	30271.703125
1265.964844	30472.144531
1264.890625	29928.130859
1263.815430	30028.552734
1262.740234	30398.642578
1261.665039	30052.587891
1260.588867	29748.517578
1259.513672	29479.429688
1258.437500	28857.349609
1257.360352	28530.505859
1256.284180	28150.396484
1255.207031	26897.546875
1254.129883	26253.359375
1253.052734	25788.132813
1251.975586	25021.503906
1250.897461	24433.814453
1249.819336	24133.935547
1248.741211	23486.412109
1247.662109	23045.474609
1246.583984	22444.820313
1245.504883	22117.830078
1244.425781	21925.337891
1243.345703	21526.808594
1242.266602	21392.414063
1241.186523	21079.826172
1240.106445	20260.513672
1239.026367	20482.822266
1237.945313	20115.113281
1236.864258	19983.480469
1235.783203	19507.357422
1234.702148	19149.347656
1233.620117	18904.750000
1232.538086	19261.085938
1231.456055	18762.429688
1230.374023	18564.271484
1229.291016	18721.839844
1228.208984	18244.406250
1227.125977	18515.078125
1226.041992	17991.742188
1224.958984	18050.074219
1223.875000	17926.144531
1222.791016	17633.906250
1221.707031	17784.507813
1220.622070	17766.755859
1219.538086	17739.791016
1218.453125	17572.275391
1217.367188	17598.349609
1216.282227	17520.763672
1215.196289	17353.402344
1214.110352	17648.863281
1213.024414	17336.537109
1211.938477	17341.916016
1210.851563	17430.115234
1209.764648	17366.460938
1208.677734	17482.208984
1207.589844	17420.867188
1206.502930	17421.615234
1205.415039	17461.429688
1204.326172	17209.423828
1203.238281	17212.511719
1202.149414	17415.402344
1201.060547	17172.753906
1199.971680	17311.285156
1198.882813	17383.193359
1197.792969	17253.144531
1196.703125	17006.152344
1195.613281	16990.919922
1194.523438	17326.535156
1193.432617	17072.806641
1192.341797	17000.263672
1191.250977	16879.628906
1190.160156	16969.822266
1189.068359	16892.765625
1187.976563	16790.548828
1186.884766	16981.437500
1185.792969	17080.679688
1184.700195	16772.519531
1183.607422	16640.669922
1182.514648	16831.416016
1181.421875	16768.220703
1180.328125	16883.396484
1179.234375	16829.357422
1178.140625	16789.054688
1177.046875	16636.804688
1175.952148	16834.140625
1174.857422	16885.216797
1173.762695	16726.191406
1172.667969	16882.279297
1171.572266	16565.835938
1170.476563	16988.871094
1169.380859	16912.089844
1168.285156	16773.753906
1167.188477	16722.134766
1166.091797	16376.432617
1164.995117	16245.142578
1163.898438	16241.527344
1162.800781	16169.561523
1161.703125	16332.244141
1160.605469	15920.961914
1159.507813	15915.138672
1158.409180	15686.235352
1157.310547	15976.322266
1156.211914	15990.964844
1155.113281	15953.277344
1154.013672	15890.588867
1152.914063	15991.639648
1151.814453	16185.849609
1150.714844	15884.503906
1149.614258	15958.216797
1148.513672	16113.678711
1147.413086	16082.826172
1146.312500	16185.960938
1145.210938	16293.588867
1144.109375	16165.113281
1143.007813	16483.734375
1141.906250	16470.974609
1140.803711	16351.614258
1139.701172	16245.911133
1138.598633	16319.364258
1137.496094	16213.712891
1136.392578	16391.380859
1135.289063	16020.672852
1134.185547	16318.356445
1133.082031	16597.787109
1131.977539	16575.958984
1130.873047	16986.496094
1129.768555	17127.533203
1128.663086	17537.759766
1127.558594	17807.548828
1126.453125	18590.605469
1125.347656	19307.736328
1124.241211	19832.390625
1123.135742	20856.292969
1122.029297	21262.861328
1120.921875	21691.837891
1119.815430	21675.675781
1118.708008	21912.425781
1117.600586	22106.171875
1116.493164	22031.238281
1115.385742	21681.037109
1114.277344	21308.429688
1113.168945	21152.519531
1112.060547	20484.783203
1110.951172	20277.269531
1109.841797	20092.386719
1108.732422	19752.093750
1107.623047	19441.240234
1106.513672	19130.525391
1105.403320	19277.103516
1104.292969	19662.271484
1103.182617	19585.812500
1102.071289	20218.287109
1100.959961	20706.474609
1099.848633	20920.007813
1098.737305	22053.263672
1097.625000	22680.107422
1096.513672	23446.037109
1095.400391	24818.427734
1094.288086	25354.337891
1093.175781	26462.841797
1092.062500	27894.255859
1090.949219	28676.095703
1089.834961	29625.949219
1088.721680	30983.849609
1087.607422	31302.212891
1086.493164	32214.925781
1085.377930	32806.492188
1084.263672	32902.222656
1083.148438	33118.968750
1082.032227	32999.414063
1080.916992	32803.714844
1079.800781	32444.560547
1078.684570	32215.474609
1077.568359	31977.531250
1076.452148	31088.197266
1075.334961	30620.064453
1074.217773	29955.212891
1073.100586	29487.542969
1071.982422	28454.173828
1070.865234	28353.798828
1069.747070	28050.011719
1068.627930	28656.113281
1067.509766	28935.660156
1066.390625	29438.503906
1065.271484	29621.689453
1064.152344	29938.783203
1063.032227	29579.212891
1061.912109	28744.339844
1060.791992	27579.546875
1059.671875	27106.957031
1058.550781	25983.212891
1057.429688	25620.474609
1056.308594	24600.138672
1055.187500	24458.562500
1054.065430	24047.378906
1052.943359	23446.986328
1051.821289	23370.363281
1050.698242	23202.458984
1049.576172	23045.761719
1048.453125	23004.892578
1047.329102	22777.087891
1046.206055	22783.021484
1045.082031	22586.509766
1043.958008	22768.183594
1042.833984	22671.822266
1041.708984	22777.804688
1040.584961	22483.669922
1039.458984	22774.072266
1038.333984	22600.033203
1037.208984	22663.722656
1036.083008	22620.794922
1034.957031	22635.607422
1033.830078	22455.087891
1032.703125	22660.761719
1031.577148	22693.294922
1030.449219	22382.017578
1029.322266	22170.666016
1028.194336	22156.724609
1027.066406	22105.105469
1025.938477	21851.851563
1024.810547	21950.974609
1023.681641	22145.292969
1022.552734	22448.027344
1021.422852	22569.076172
1020.293945	22572.755859
1019.164063	22310.876953
1018.034180	22212.835938
1016.904297	22614.732422
1015.773438	22647.134766
1014.642578	22588.873047
1013.511719	22214.546875
1012.379883	22211.654297
1011.249023	22157.943359
1010.117188	21426.128906
1008.985352	21010.445313
1007.852539	21027.691406
1006.719727	21014.025391
1005.586914	20675.955078
1004.454102	20395.404297
1003.320313	20456.884766
1002.187500	20300.005859
1001.053711	20268.871094
999.918945	20297.265625
998.785156	19909.126953
997.650391	19748.103516
996.514648	19441.767578
995.379883	19452.699219
994.244141	19395.367188
993.108398	19316.048828
991.972656	19293.982422
990.836914	19337.933594
989.700195	18968.310547
988.563477	18787.990234
987.425781	18843.011719
986.289063	18968.351563
985.151367	19368.341797
984.013672	19216.650391
982.875977	19113.351563
981.737305	19587.695313
980.598633	20037.664063
979.459961	20507.177734
978.320313	21099.373047
977.180664	21274.404297
976.041016	21826.656250
974.901367	22455.408203
973.761719	22737.433594
972.621094	23045.630859
971.480469	23040.285156
970.338867	23376.748047
969.198242	22924.441406
968.056641	22647.548828
966.915039	22305.093750
965.772461	22153.244141
964.629883	21644.730469
963.487305	21423.082031
962.344727	21194.972656
961.202148	20971.339844
960.058594	20819.962891
958.915039	20791.070313
957.770508	20867.093750
956.626953	20580.371094
955.482422	20870.480469
954.337891	20872.167969
953.192383	20384.759766
952.046875	20580.837891
950.901367	20754.998047
949.755859	20769.792969
948.610352	20529.351563
947.463867	20738.289063
946.317383	21045.244141
945.169922	20935.693359
944.023438	20858.882813
942.875977	20714.558594
941.728516	20818.634766
940.580078	20791.986328
939.431641	20754.462891
938.283203	20590.697266
937.134766	20531.470703
935.986328	20729.013672
934.836914	20632.796875
933.687500	20686.681641
932.537109	20318.728516
931.386719	20283.533203
930.237305	20665.617188
929.085938	20378.312500
927.935547	20519.072266
926.784180	20835.673828
925.632813	20759.130859
924.481445	21032.109375
923.329102	21224.656250
922.176758	21343.341797
921.024414	21798.193359
919.872070	22096.683594
918.718750	22336.490234
917.565430	22777.773438
916.412109	22516.689453
915.257813	22953.382813
914.103516	23106.105469
912.949219	23308.562500
911.794922	23601.855469
910.639648	24193.722656
909.484375	24835.080078
908.329102	24731.861328
907.172852	25201.902344
906.017578	25386.259766
904.860352	25644.037109
903.704102	25519.097656
902.547852	25580.060547
901.390625	25312.595703
900.232422	24805.490234
899.075195	24778.031250
897.916992	24530.365234
896.758789	24410.162109
895.600586	24464.808594
894.441406	24443.916016
893.282227	24660.292969
892.123047	25193.558594
890.963867	25316.943359
889.803711	25423.023438
888.643555	25470.869141
887.483398	25184.757813
886.322266	25049.550781
885.161133	24946.705078
884.000000	24632.923828
882.838867	24364.490234
881.676758	24515.785156
880.514648	24699.275391
879.352539	25043.986328
878.190430	25480.992188
877.027344	25887.689453
875.864258	26304.937500
874.700195	26408.263672
873.537109	26874.591797
872.373047	27377.205078
871.208008	27293.382813
870.043945	27297.611328
868.878906	27555.087891
867.713867	27913.283203
866.548828	27267.361328
865.382813	27782.009766
864.216797	27571.683594
863.050781	27209.255859
861.883789	27447.074219
860.716797	27528.363281
859.549805	27361.126953
858.382813	27405.982422
857.214844	27322.349609
856.046875	27343.640625
854.878906	27474.060547
853.710938	27615.113281
852.541992	27520.798828
851.373047	26977.437500
850.203125	26872.625000
849.034180	26686.634766
847.864258	26919.578125
846.694336	26855.435547
845.523438	26994.236328
844.352539	27271.771484
843.181641	27207.582031
842.010742	27241.599609
840.838867	27128.359375
839.666992	26944.767578
838.495117	26703.673828
837.322266	26283.572266
836.149414	25507.648438
834.976563	25160.496094
833.803711	24645.169922
832.629883	24225.953125
831.456055	23555.619141
830.282227	23092.146484
829.107422	22499.037109
827.932617	21738.078125
826.757813	21598.787109
825.583008	21223.435547
824.407227	20744.052734
823.231445	20420.113281
822.055664	20179.228516
820.878906	20002.212891
819.702148	19653.181641
818.525391	19707.906250
817.348633	19785.960938
816.170898	19596.460938
814.993164	19538.654297
813.814453	19400.230469
812.636719	19497.367188
811.458008	19363.257813
810.279297	19487.919922
809.099609	19385.673828
807.919922	19177.496094
806.740234	19138.939453
805.560547	18979.644531
804.379883	18856.429688
803.199219	18798.912109
802.018555	18512.791016
800.836914	18192.941406
799.655273	17742.056641
798.473633	17642.548828
797.291992	17386.583984
796.109375	17450.013672
794.926758	17189.986328
793.744141	16913.177734
792.560547	16792.851563
791.376953	16588.087891
790.193359	16731.871094
789.008789	16615.890625
787.824219	16470.416016
786.639648	16550.806641
785.455078	16574.193359
784.269531	16616.548828
783.083984	16547.119141
781.898438	16361.769531
780.711914	16349.338867
779.525391	16549.736328
778.338867	16431.927734
777.152344	16577.443359
775.964844	16567.068359
774.777344	16687.212891
773.588867	16666.287109
772.401367	16432.857422
771.212891	16557.146484
770.024414	16771.802734
768.834961	16719.330078
767.645508	16719.431641
766.456055	16866.634766
765.265625	16583.062500
764.076172	16810.039063
762.885742	16820.607422
761.694336	16745.091797
760.503906	16533.179688
759.312500	16564.785156
758.120117	16367.704102
756.928711	16319.628906
755.736328	16454.001953
754.543945	16420.599609
753.350586	16324.336914
752.157227	16299.358398
750.963867	16157.083008
749.770508	16536.347656
748.576172	16419.203125
747.381836	16509.345703
746.187500	16773.134766
744.992188	16450.976563
743.796875	16584.960938
742.601563	16781.613281
741.406250	16764.917969
740.209961	16796.302734
739.013672	16884.087891
737.816406	16637.572266
736.620117	17005.216797
735.422852	17049.029297
734.224609	17155.443359
733.027344	17257.626953
731.829102	16963.322266
730.630859	17009.175781
729.431641	17155.107422
728.232422	17363.513672
727.033203	17192.445313
725.833984	17236.101563
724.633789	17702.666016
723.433594	17346.255859
722.232422	17039.998047
721.032227	16746.378906
719.831055	16646.468750
718.628906	16742.201172
717.427734	16692.263672
716.225586	16486.365234
715.023438	16216.110352
713.820313	16118.522461
712.617188	16008.511719
711.414063	16187.353516
710.210938	15610.009766
709.006836	15483.586914
707.802734	15326.083984
706.598633	15382.445313
705.393555	15229.191406
704.188477	15026.221680
702.983398	14893.869141
701.777344	14832.081055
700.571289	14706.057617
699.365234	14604.965820
698.158203	14466.625977
696.952148	14701.217773
695.744141	14606.408203
694.537109	14461.954102
693.329102	14209.935547
692.121094	14506.428711
690.913086	14322.792969
689.704102	14201.297852
688.495117	14154.303711
687.286133	14353.340820
686.076172	14093.448242
684.866211	14137.425781
683.656250	14030.579102
682.445313	14074.545898
681.234375	14130.876953
680.023438	13906.446289
678.812500	14072.161133
677.600586	14021.159180
676.388672	13887.675781
675.175781	13948.095703
673.963867	13967.251953
672.750977	13689.601563
671.537109	13778.866211
670.323242	13954.605469
669.109375	13572.127930
667.895508	13574.871094
666.680664	13563.202148
665.465820	13491.855469
664.250977	13908.152344
663.036133	13554.956055
661.820313	13502.166992
660.603516	13293.157227
659.387695	13468.599609
658.170898	13255.590820
656.954102	13303.583008
655.736328	13273.505859
654.519531	13153.098633
653.300781	12936.272461
652.083008	13392.676758
650.864258	13099.983398
649.645508	13186.901367
648.426758	13117.924805
647.207031	13044.880859
645.987305	12881.689453
644.767578	13038.234375
643.546875	12914.045898
642.326172	13222.052734
641.105469	13099.924805
639.883789	13209.165039
638.662109	13322.440430
637.440430	13433.610352
636.217773	13387.224609
634.995117	13441.059570
633.772461	13689.079102
632.549805	13546.595703
631.326172	13704.551758
630.102539	13764.370117
628.877930	13813.944336
627.653320	13765.486328
626.428711	13898.720703
625.204102	13972.703125
623.978516	13834.467773
622.752930	14016.526367
621.526367	13913.010742
620.300781	14009.329102
619.074219	13973.121094
617.846680	14238.488281
616.619141	14126.864258
615.391602	14343.174805
614.164063	14310.980469
612.935547	14303.225586
611.707031	14484.722656
610.478516	14802.428711
609.249023	14709.123047
608.019531	14898.500977
