#Wave		#Intensity
1725.743164	58418.246094
1724.768555	58728.464844
1723.792969	59371.792969
1722.817383	59943.085938
1721.841797	60001.707031
1720.866211	60557.238281
1719.889648	60674.601563
1718.913086	60528.187500
1717.936523	60435.593750
1716.959961	61315.574219
1715.982422	61171.671875
1715.005859	62048.542969
1714.028320	62510.699219
1713.049805	62535.394531
1712.072266	63155.738281
1711.093750	62579.632813
1710.116211	63749.105469
1709.137695	64108.183594
1708.158203	63928.156250
1707.179688	64095.507813
1706.200195	64678.953125
1705.220703	64950.722656
1704.241211	64918.679688
1703.261719	65521.968750
1702.281250	65864.796875
1701.301758	65914.187500
1700.321289	66091.039063
1699.339844	66507.445313
1698.359375	66141.218750
1697.377930	66830.085938
1696.396484	67317.382813
1695.415039	67414.773438
1694.433594	68039.242188
1693.451172	67522.867188
1692.469727	68057.953125
1691.487305	68111.828125
1690.504883	68018.117188
1689.521484	68270.382813
1688.539063	68443.703125
1687.555664	68413.539063
1686.572266	69112.953125
1685.587891	68790.382813
1684.604492	68513.687500
1683.620117	68641.031250
1682.635742	69068.023438
1681.651367	69096.156250
1680.666992	69129.351563
1679.681641	69606.710938
1678.696289	69368.257813
1677.710938	69099.460938
1676.725586	69152.914063
1675.739258	68486.132813
1674.753906	68823.656250
1673.767578	68661.671875
1672.781250	68912.843750
1671.793945	68788.906250
1670.807617	69275.523438
1669.820313	68883.101563
1668.833008	69450.515625
1667.845703	68951.898438
1666.857422	68985.000000
1665.870117	68932.054688
1664.881836	69142.242188
1663.892578	68565.703125
1662.904297	69476.351563
1661.916016	69279.226563
1660.926758	69481.570313
1659.937500	69590.312500
1658.948242	69413.500000
1657.958008	69870.804688
1656.968750	70282.445313
1655.978516	70274.765625
1654.988281	70029.789063
1653.997070	70602.656250
1653.006836	70501.539063
1652.015625	71008.460938
1651.024414	70725.695313
1650.033203	71144.085938
1649.041016	71383.289063
1648.049805	71519.039063
1647.057617	72206.617188
1646.065430	71986.882813
1645.072266	72472.546875
1644.080078	72663.343750
1643.086914	72788.585938
1642.093750	73037.125000
1641.100586	73174.820313
1640.107422	73702.460938
1639.113281	74005.976563
1638.119141	73751.007813
1637.125000	73636.960938
1636.130859	74860.421875
1635.135742	74947.257813
1634.141602	75124.523438
1633.146484	75256.484375
1632.151367	75797.812500
1631.155273	75889.382813
1630.160156	76357.531250
1629.164063	76807.898438
1628.167969	76941.851563
1627.170898	77193.671875
1626.174805	77766.484375
1625.177734	77496.335938
1624.180664	78505.132813
1623.183594	78297.617188
1622.186523	79055.156250
1621.188477	79672.039063
1620.190430	80033.101563
1619.192383	80283.804688
1618.194336	81671.320313
1617.196289	81981.640625
1616.197266	82719.867188
1615.198242	83703.023438
1614.199219	83997.687500
1613.199219	84194.656250
1612.200195	84796.695313
1611.200195	85811.054688
1610.200195	86959.968750
1609.200195	86523.765625
1608.199219	87429.632813
1607.199219	87965.359375
1606.198242	88203.617188
1605.196289	88669.015625
1604.195313	88612.398438
1603.194336	88573.281250
1602.192383	89103.171875
1601.190430	88305.453125
1600.187500	88842.656250
1599.185547	89254.921875
1598.182617	88931.437500
1597.179688	89233.812500
1596.176758	89127.296875
1595.173828	89018.343750
1594.169922	88652.820313
1593.166992	88671.039063
1592.163086	87977.039063
1591.158203	88470.914063
1590.154297	88357.218750
1589.149414	88465.062500
1588.144531	88065.281250
1587.139648	88041.296875
1586.134766	87684.054688
1585.128906	87016.156250
1584.123047	87855.015625
1583.117188	88362.953125
1582.111328	87484.125000
1581.105469	87092.593750
1580.098633	87443.875000
1579.091797	87087.289063
1578.084961	88195.640625
1577.078125	87948.250000
1576.070313	87877.156250
1575.062500	87585.273438
1574.054688	88000.468750
1573.046875	87363.960938
1572.038086	87627.773438
1571.030273	87985.664063
1570.021484	88006.343750
1569.012695	86884.695313
1568.002930	88139.312500
1566.994141	88263.953125
1565.984375	88534.640625
1564.974609	88277.875000
1563.964844	88199.429688
1562.954102	88742.164063
1561.943359	89034.765625
1560.933594	89562.234375
1559.921875	88761.429688
1558.911133	88957.398438
1557.899414	88503.140625
1556.888672	88353.070313
1555.876953	88185.757813
1554.864258	88324.851563
1553.852539	87448.757813
1552.839844	87239.765625
1551.827148	86472.906250
1550.814453	86274.078125
1549.801758	85423.843750
1548.788086	84781.226563
1547.774414	84511.343750
1546.760742	85038.148438
1545.747070	84354.101563
1544.732422	84094.335938
1543.718750	83948.054688
1542.704102	84368.562500
1541.689453	83924.187500
1540.673828	84024.328125
1539.659180	84028.375000
1538.643555	83953.648438
1537.627930	83711.570313
1536.611328	84175.851563
1535.595703	83466.359375
1534.579102	83891.140625
1533.562500	83351.695313
1532.545898	83387.828125
1531.529297	82202.210938
1530.511719	82988.156250
1529.494141	82650.851563
1528.476563	81932.906250
1527.458984	82322.960938
1526.440430	81877.960938
1525.421875	81698.281250
1524.403320	81364.054688
1523.384766	82514.609375
1522.366211	81868.750000
1521.346680	81507.703125
1520.327148	81627.476563
1519.307617	81850.171875
1518.288086	82111.992188
1517.267578	81917.843750
1516.247070	82468.656250
1515.226563	83563.070313
1514.206055	83638.132813
1513.185547	83348.312500
1512.164063	84747.843750
1511.142578	84780.984375
1510.121094	85888.382813
1509.099609	85962.851563
1508.077148	86228.070313
1507.054688	86434.484375
1506.032227	85951.312500
1505.009766	86177.242188
1503.986328	85916.726563
1502.963867	85270.265625
1501.940430	85608.554688
1500.916992	85944.257813
1499.892578	85500.859375
1498.869141	85001.500000
1497.844727	85058.851563
1496.820313	84562.242188
1495.794922	85014.890625
1494.770508	84633.132813
1493.745117	84424.679688
1492.719727	84945.328125
1491.694336	85709.507813
1490.668945	86383.179688
1489.642578	86303.648438
1488.616211	85890.414063
1487.589844	86363.890625
1486.563477	86737.320313
1485.536133	87332.117188
1484.508789	87254.890625
1483.481445	87715.476563
1482.454102	87920.398438
1481.425781	87320.117188
1480.398438	87145.664063
1479.370117	87316.531250
1478.341797	87006.023438
1477.312500	86926.515625
1476.284180	86662.375000
1475.254883	86723.867188
1474.225586	86357.875000
1473.196289	86623.359375
1472.166016	86361.929688
1471.135742	86202.539063
1470.105469	86618.328125
1469.075195	86289.125000
1468.044922	86862.367188
1467.013672	85917.273438
1465.982422	86235.765625
1464.951172	87463.125000
1463.919922	86719.648438
1462.887695	86594.343750
1461.855469	87326.640625
1460.823242	87184.296875
1459.791016	87090.437500
1458.758789	87505.000000
1457.725586	87795.945313
1456.692383	87757.656250
1455.659180	88237.117188
1454.625977	87494.875000
1453.591797	87879.859375
1452.557617	88424.250000
1451.523438	87829.882813
1450.489258	87586.195313
1449.454102	87245.953125
1448.419922	88101.609375
1447.384766	87795.210938
1446.348633	88249.539063
1445.313477	88003.585938
1444.277344	88206.656250
1443.241211	88588.203125
1442.205078	88257.875000
1441.168945	88769.484375
1440.131836	89249.515625
1439.094727	89399.031250
1438.057617	89791.937500
1437.020508	90129.234375
1435.983398	91037.414063
1434.945313	91114.132813
1433.907227	91865.156250
1432.869141	92668.820313
1431.830078	92771.601563
1430.791992	93249.789063
1429.752930	93005.882813
1428.713867	94462.960938
1427.673828	94300.664063
1426.634766	94754.046875
1425.594727	95435.625000
1424.554688	95850.101563
1423.514648	96242.757813
1422.473633	97356.039063
1421.433594	97688.140625
1420.392578	97616.617188
1419.350586	98099.773438
1418.309570	98529.898438
1417.267578	99175.843750
1416.226563	99238.414063
1415.183594	100445.289063
1414.141602	99975.078125
1413.099609	100365.937500
1412.056641	100315.492188
1411.013672	100703.703125
1409.970703	101391.304688
1408.926758	101561.070313
1407.882813	102449.390625
1406.838867	102209.320313
1405.794922	102244.703125
1404.750977	101564.296875
1403.706055	101405.929688
1402.661133	101984.617188
1401.616211	101103.734375
1400.571289	101687.007813
1399.525391	102138.500000
1398.480469	101621.539063
1397.434570	101546.984375
1396.387695	100633.664063
1395.341797	100313.257813
1394.294922	100473.101563
1393.248047	100513.468750
1392.201172	100272.070313
1391.154297	100527.296875
1390.106445	99849.234375
1389.058594	99507.898438
1388.010742	100581.359375
1386.962891	99514.937500
1385.914063	100146.781250
1384.865234	99729.359375
1383.816406	99950.898438
1382.767578	100003.148438
1381.717773	100677.195313
1380.668945	99783.601563
1379.619141	100083.500000
1378.568359	100530.882813
1377.518555	101166.125000
1376.467773	100984.765625
1375.416992	100777.312500
1374.366211	100841.125000
1373.315430	100688.484375
1372.263672	101546.484375
1371.212891	102522.976563
1370.161133	101787.718750
1369.108398	101791.812500
1368.056641	102123.757813
1367.003906	102313.031250
1365.951172	103091.164063
1364.898438	103327.617188
1363.844727	103758.609375
1362.791992	103586.609375
1361.738281	104081.406250
1360.683594	104405.187500
1359.629883	104569.921875
1358.575195	105213.546875
1357.520508	104989.226563
1356.465820	103752.953125
1355.411133	104912.898438
1354.355469	104582.156250
1353.300781	104976.343750
1352.245117	104598.359375
1351.188477	104466.765625
1350.132813	105362.515625
1349.076172	105050.937500
1348.019531	104469.757813
1346.962891	105175.664063
1345.905273	104980.187500
1344.848633	104867.554688
1343.791016	105215.929688
1342.733398	105519.250000
1341.674805	104879.601563
1340.617188	105322.226563
1339.558594	105835.515625
1338.500000	106081.726563
1337.440430	106261.718750
1336.381836	106387.343750
1335.322266	106791.367188
1334.262695	107709.546875
1333.203125	108292.367188
1332.142578	108990.476563
1331.082031	109028.093750
1330.021484	109136.406250
1328.960938	109744.296875
1327.900391	109428.257813
1326.838867	110087.640625
1325.777344	110449.960938
1324.715820	109083.726563
1323.654297	110140.593750
1322.591797	109902.445313
1321.529297	109812.648438
1320.466797	108800.617188
1319.404297	108845.156250
1318.340820	108416.976563
1317.277344	107977.226563
1316.213867	107351.953125
1315.150391	108007.765625
1314.085938	106024.664063
1313.022461	105468.320313
1311.958008	105316.179688
1310.892578	105182.882813
1309.828125	104570.718750
1308.762695	104822.546875
1307.697266	104858.367188
1306.631836	104234.929688
1305.566406	104496.023438
1304.500000	103769.742188
1303.433594	103475.156250
1302.367188	103161.937500
1301.299805	102708.242188
1300.233398	103365.304688
1299.166016	103033.554688
1298.098633	103645.750000
1297.030273	103089.289063
1295.962891	103249.390625
1294.894531	102765.796875
1293.826172	103049.890625
1292.757813	103039.101563
1291.688477	103192.023438
1290.619141	103358.898438
1289.549805	103196.062500
1288.480469	103521.789063
1287.411133	103583.304688
1286.340820	103065.375000
1285.270508	103816.015625
1284.200195	103868.062500
1283.128906	103338.710938
1282.058594	104179.820313
1280.987305	104308.742188
1279.916016	104640.593750
1278.843750	103808.242188
1277.771484	103890.492188
1276.700195	104478.695313
1275.626953	104395.226563
1274.554688	104812.898438
1273.481445	105600.882813
1272.409180	105174.734375
1271.335938	106497.992188
1270.261719	106546.867188
1269.188477	107291.843750
1268.114258	107480.164063
1267.040039	107617.203125
1265.964844	108749.984375
1264.890625	108428.414063
1263.815430	108397.679688
1262.740234	109555.093750
1261.665039	110021.578125
1260.588867	110115.992188
1259.513672	110417.156250
1258.437500	111115.429688
1257.360352	111281.515625
1256.284180	112341.515625
1255.207031	112070.789063
1254.129883	111944.078125
1253.052734	112875.578125
1251.975586	113291.617188
1250.897461	112366.781250
1249.819336	112870.851563
1248.741211	111958.085938
1247.662109	112012.312500
1246.583984	111603.015625
1245.504883	111374.609375
1244.425781	111811.117188
1243.345703	111175.140625
1242.266602	110835.812500
1241.186523	110258.179688
1240.106445	109868.265625
1239.026367	109559.500000
1237.945313	110081.375000
1236.864258	109825.875000
1235.783203	108978.507813
1234.702148	108473.664063
1233.620117	108509.890625
1232.538086	108437.484375
1231.456055	107956.171875
1230.374023	107909.304688
1229.291016	107883.242188
1228.208984	107245.335938
1227.125977	106344.554688
1226.041992	106189.585938
1224.958984	106221.562500
1223.875000	105183.164063
1222.791016	104018.375000
1221.707031	103640.351563
1220.622070	102824.492188
1219.538086	102333.953125
1218.453125	100615.453125
1217.367188	100613.992188
1216.282227	99117.726563
1215.196289	98529.382813
1214.110352	97904.453125
1213.024414	97590.531250
1211.938477	96485.117188
1210.851563	96187.726563
1209.764648	95264.812500
1208.677734	95342.656250
1207.589844	94905.445313
1206.502930	94771.835938
1205.415039	94148.781250
1204.326172	94353.140625
1203.238281	93937.171875
1202.149414	93659.179688
1201.060547	92788.898438
1199.971680	93160.929688
1198.882813	93468.523438
1197.792969	92149.093750
1196.703125	93587.742188
1195.613281	92468.398438
1194.523438	93112.921875
1193.432617	92601.695313
1192.341797	92915.828125
1191.250977	92650.054688
1190.160156	93598.640625
1189.068359	92826.601563
1187.976563	92391.531250
1186.884766	92288.632813
1185.792969	92082.757813
1184.700195	92478.851563
1183.607422	91474.500000
1182.514648	91545.703125
1181.421875	91635.171875
1180.328125	91804.609375
1179.234375	91631.078125
1178.140625	91023.367188
1177.046875	90955.171875
1175.952148	91152.000000
1174.857422	90051.445313
1173.762695	91360.398438
1172.667969	90938.296875
1171.572266	90566.593750
1170.476563	90450.625000
1169.380859	90117.960938
1168.285156	90294.078125
1167.188477	89954.734375
1166.091797	89460.507813
1164.995117	89415.531250
1163.898438	90612.546875
1162.800781	89886.078125
1161.703125	90102.968750
1160.605469	89937.148438
1159.507813	90101.539063
1158.409180	89851.562500
1157.310547	89956.710938
1156.211914	90157.367188
1155.113281	90021.257813
1154.013672	89864.726563
1152.914063	89885.609375
1151.814453	90051.976563
1150.714844	89918.242188
1149.614258	90150.406250
1148.513672	90639.156250
1147.413086	89962.531250
1146.312500	89706.289063
1145.210938	89913.273438
1144.109375	89128.289063
1143.007813	90399.570313
1141.906250	89843.953125
1140.803711	89760.359375
1139.701172	89236.859375
1138.598633	89788.242188
1137.496094	89564.156250
1136.392578	89283.507813
1135.289063	88980.320313
1134.185547	89057.812500
1133.082031	89350.406250
1131.977539	89461.718750
1130.873047	89647.679688
1129.768555	88706.500000
1128.663086	89245.500000
1127.558594	88318.382813
1126.453125	88983.859375
1125.347656	89086.015625
1124.241211	88693.039063
1123.135742	89037.023438
1122.029297	88585.468750
1120.921875	88502.335938
1119.815430	88575.078125
1118.708008	88875.843750
1117.600586	88905.554688
1116.493164	89039.070313
1115.385742	88838.546875
1114.277344	88371.882813
1113.168945	89470.781250
1112.060547	89930.992188
1110.951172	90357.171875
1109.841797	90354.882813
1108.732422	90742.445313
1107.623047	90737.804688
1106.513672	90940.382813
1105.403320	90931.179688
1104.292969	90802.632813
1103.182617	91781.625000
1102.071289	92352.828125
1100.959961	91879.781250
1099.848633	93031.046875
1098.737305	93142.773438
1097.625000	93713.117188
1096.513672	93853.835938
1095.400391	94477.679688
1094.288086	95002.375000
1093.175781	95338.117188
1092.062500	95494.031250
1090.949219	95533.093750
1089.834961	95551.937500
1088.721680	96363.023438
1087.607422	95923.890625
1086.493164	95823.703125
1085.377930	95737.000000
1084.263672	95275.851563
1083.148438	94844.046875
1082.032227	94602.945313
1080.916992	94579.304688
1079.800781	94687.843750
1078.684570	93483.781250
1077.568359	93563.390625
1076.452148	93575.789063
1075.334961	93623.976563
1074.217773	94283.062500
1073.100586	94093.898438
1071.982422	93947.312500
1070.865234	93024.789063
1069.747070	93374.835938
1068.627930	93360.359375
1067.509766	93453.156250
1066.390625	92540.476563
1065.271484	93102.484375
1064.152344	92527.500000
1063.032227	93060.203125
1061.912109	93032.367188
1060.791992	92096.226563
1059.671875	92260.484375
1058.550781	92351.046875
1057.429688	92287.679688
1056.308594	92224.328125
1055.187500	92337.093750
1054.065430	92195.734375
1052.943359	92687.226563
1051.821289	92091.390625
1050.698242	91916.750000
1049.576172	91581.851563
1048.453125	91489.750000
1047.329102	91747.109375
1046.206055	92273.570313
1045.082031	91126.882813
1043.958008	91831.156250
1042.833984	91694.578125
1041.708984	91169.015625
1040.584961	91483.820313
1039.458984	90987.406250
1038.333984	90260.171875
1037.208984	90832.578125
1036.083008	90727.445313
1034.957031	90113.960938
1033.830078	90186.578125
1032.703125	89833.101563
1031.577148	90074.343750
1030.449219	89670.023438
1029.322266	89516.453125
1028.194336	89054.781250
1027.066406	89573.000000
1025.938477	90113.132813
1024.810547	89441.132813
1023.681641	89234.585938
1022.552734	88671.585938
1021.422852	89649.757813
1020.293945	89618.132813
1019.164063	89338.664063
1018.034180	89473.039063
1016.904297	89753.328125
1015.773438	89666.375000
1014.642578	89690.007813
1013.511719	89523.523438
1012.379883	89686.375000
1011.249023	89787.281250
1010.117188	89881.507813
1008.985352	89668.710938
1007.852539	89683.414063
1006.719727	89876.898438
1005.586914	89492.085938
1004.454102	89564.156250
1003.320313	89488.390625
1002.187500	90224.203125
1001.053711	90287.203125
999.918945	89514.734375
998.785156	89683.625000
997.650391	89286.187500
996.514648	88655.429688
995.379883	89388.156250
994.244141	89471.015625
993.108398	89139.984375
991.972656	88210.500000
990.836914	89413.460938
989.700195	88156.554688
988.563477	88633.210938
987.425781	88931.546875
986.289063	88803.273438
985.151367	88499.234375
984.013672	89017.078125
982.875977	88234.226563
981.737305	88521.273438
980.598633	88388.796875
979.459961	87808.570313
978.320313	88023.054688
977.180664	89022.937500
976.041016	88225.757813
974.901367	88547.429688
973.761719	88649.679688
972.621094	87513.335938
971.480469	88174.617188
970.338867	88320.679688
969.198242	87581.664063
968.056641	88049.710938
966.915039	87295.750000
965.772461	87903.726563
964.629883	87027.570313
963.487305	87037.968750
962.344727	87170.859375
961.202148	87089.343750
960.058594	87055.960938
958.915039	86460.773438
957.770508	87131.257813
956.626953	86748.257813
955.482422	86846.015625
954.337891	86679.453125
953.192383	87082.835938
952.046875	86746.000000
950.901367	86623.195313
949.755859	86533.164063
948.610352	86486.796875
947.463867	86595.281250
946.317383	87083.093750
945.169922	86681.265625
944.023438	86756.906250
942.875977	87222.523438
941.728516	86764.281250
940.580078	86720.031250
939.431641	86963.203125
938.283203	86877.546875
937.134766	86837.625000
935.986328	87041.406250
934.836914	87379.945313
933.687500	87844.453125
932.537109	87762.992188
931.386719	87409.828125
930.237305	87641.429688
929.085938	87749.070313
927.935547	87795.820313
926.784180	88509.265625
925.632813	88095.492188
924.481445	88465.531250
923.329102	88885.304688
922.176758	88764.609375
921.024414	88620.101563
919.872070	89677.101563
918.718750	89413.171875
917.565430	90402.265625
916.412109	89730.851563
915.257813	90502.718750
914.103516	90763.000000
912.949219	91592.710938
911.794922	91304.820313
910.639648	91378.539063
909.484375	92166.367188
908.329102	91657.828125
907.172852	91999.593750
906.017578	91928.148438
904.860352	92632.898438
903.704102	92457.554688
902.547852	92267.156250
901.390625	92333.929688
900.232422	92342.351563
899.075195	92512.710938
897.916992	92495.148438
896.758789	93220.101563
895.600586	93325.359375
894.441406	92994.750000
893.282227	93514.125000
892.123047	93317.304688
890.963867	93178.773438
889.803711	93870.125000
888.643555	93837.093750
887.483398	93666.187500
886.322266	94208.281250
885.161133	94358.187500
884.000000	93872.929688
882.838867	93865.703125
881.676758	93852.015625
880.514648	94380.445313
879.352539	94162.289063
878.190430	94081.843750
877.027344	94042.265625
875.864258	95272.921875
874.700195	94266.109375
873.537109	94752.804688
872.373047	94019.335938
871.208008	94181.601563
870.043945	94099.046875
868.878906	94042.281250
867.713867	94116.406250
866.548828	93688.523438
865.382813	93751.953125
864.216797	93480.851563
863.050781	93364.210938
861.883789	92739.695313
860.716797	93113.921875
859.549805	93687.171875
858.382813	93232.171875
857.214844	93274.101563
856.046875	93238.945313
854.878906	92863.523438
853.710938	93202.875000
852.541992	93503.554688
851.373047	93179.625000
850.203125	93204.328125
849.034180	93291.000000
847.864258	93602.000000
846.694336	93011.250000
845.523438	93332.820313
844.352539	92889.734375
843.181641	92833.273438
842.010742	93013.750000
840.838867	93625.171875
839.666992	92983.984375
838.495117	93906.500000
837.322266	93190.890625
836.149414	93833.609375
834.976563	94043.343750
833.803711	94148.554688
832.629883	94856.578125
831.456055	95542.953125
830.282227	95432.632813
829.107422	95699.140625
827.932617	95839.937500
826.757813	96497.703125
825.583008	97057.281250
824.407227	96963.664063
823.231445	97316.593750
822.055664	97127.281250
820.878906	97775.375000
819.702148	98525.117188
818.525391	98314.367188
817.348633	98857.601563
816.170898	98566.171875
814.993164	98627.218750
813.814453	99592.234375
812.636719	100520.703125
811.458008	100074.257813
810.279297	100240.851563
809.099609	100377.671875
807.919922	101644.125000
806.740234	101808.054688
805.560547	101851.140625
804.379883	102072.093750
803.199219	102788.421875
802.018555	102541.171875
800.836914	104154.375000
799.655273	103758.765625
798.473633	104674.890625
797.291992	105656.117188
796.109375	105987.734375
794.926758	106841.304688
793.744141	107362.640625
792.560547	107877.375000
791.376953	109352.945313
790.193359	110293.500000
789.008789	112107.648438
787.824219	113011.156250
786.639648	115338.632813
785.455078	115390.640625
784.269531	117895.656250
783.083984	118145.203125
781.898438	117384.789063
780.711914	117396.132813
779.525391	115574.218750
778.338867	114256.671875
777.152344	111844.562500
775.964844	110442.203125
774.777344	107979.546875
773.588867	106248.367188
772.401367	103634.312500
771.212891	101865.054688
770.024414	100843.226563
768.834961	99577.992188
767.645508	98248.203125
766.456055	97278.414063
765.265625	96901.554688
764.076172	95718.289063
762.885742	95917.367188
761.694336	95072.906250
760.503906	94342.187500
759.312500	93884.609375
758.120117	93462.898438
756.928711	93307.757813
755.736328	93020.570313
754.543945	92813.179688
753.350586	92574.437500
752.157227	92717.140625
750.963867	91994.617188
749.770508	92078.726563
748.576172	92918.625000
747.381836	92797.296875
746.187500	92640.445313
744.992188	91630.039063
743.796875	92195.148438
742.601563	92467.210938
741.406250	92567.687500
740.209961	92741.257813
739.013672	93336.828125
737.816406	93464.125000
736.620117	93940.148438
735.422852	94123.585938
734.224609	95851.703125
733.027344	96441.523438
731.829102	96659.632813
730.630859	97906.015625
729.431641	99082.945313
728.232422	100972.328125
727.033203	102406.351563
725.833984	103995.937500
724.633789	106147.242188
723.433594	106776.953125
722.232422	107864.453125
721.032227	107079.812500
719.831055	105498.406250
718.628906	104080.062500
717.427734	101969.679688
716.225586	100438.507813
715.023438	98621.148438
713.820313	97316.046875
712.617188	97025.757813
711.414063	96756.367188
710.210938	94904.289063
709.006836	94581.546875
707.802734	93827.109375
706.598633	93836.859375
705.393555	93917.148438
704.188477	93117.757813
702.983398	93474.015625
701.777344	93011.015625
700.571289	92966.992188
699.365234	92195.531250
698.158203	92572.312500
696.952148	92565.679688
695.744141	93273.507813
694.537109	92544.085938
693.329102	92634.703125
692.121094	92981.867188
690.913086	92592.320313
689.704102	93019.953125
688.495117	93273.656250
687.286133	93374.242188
686.076172	93906.718750
684.866211	93974.000000
683.656250	93316.156250
682.445313	93022.109375
681.234375	93692.421875
680.023438	93726.601563
678.812500	93253.093750
677.600586	93363.671875
676.388672	93255.546875
675.175781	93178.398438
673.963867	93315.671875
672.750977	93246.757813
671.537109	93517.851563
670.323242	93632.234375
669.109375	93923.656250
667.895508	93924.601563
666.680664	94355.750000
665.465820	93864.710938
664.250977	94007.585938
663.036133	93763.679688
661.820313	93920.875000
660.603516	93983.406250
659.387695	93571.109375
658.170898	93522.703125
656.954102	93675.632813
655.736328	93547.101563
654.519531	92995.656250
653.300781	92452.679688
652.083008	92599.507813
650.864258	92036.359375
649.645508	93356.453125
648.426758	92360.687500
647.207031	92583.187500
645.987305	92612.890625
644.767578	92915.093750
643.546875	92821.757813
642.326172	93068.421875
641.105469	93339.523438
639.883789	93348.453125
638.662109	94100.226563
637.440430	94260.328125
636.217773	93191.031250
634.995117	93942.226563
633.772461	93805.765625
632.549805	93575.343750
631.326172	93761.851563
630.102539	94068.781250
628.877930	93397.289063
627.653320	93328.445313
626.428711	93998.539063
625.204102	94362.171875
623.978516	94564.429688
622.752930	94209.742188
621.526367	94362.960938
620.300781	94489.585938
619.074219	94410.281250
617.846680	94599.960938
616.619141	93972.679688
615.391602	94329.335938
614.164063	94213.445313
612.935547	93773.960938
611.707031	94789.664063
610.478516	94484.500000
609.249023	94157.101563
608.019531	94053.523438
