#Wave		#Intensity
3495.491211	795.444153
3494.846680	814.845215
3494.202148	857.357727
3493.557617	822.279785
3492.913086	814.361145
3492.268555	918.882751
3491.624023	926.453613
3490.978516	972.777527
3490.333008	891.213379
3489.688477	883.288940
3489.042969	952.833740
3488.397461	944.900208
3487.750977	1033.764282
3487.105469	913.558533
3486.459961	897.896973
3485.813477	951.892273
3485.166992	936.229309
3484.520508	959.252075
3483.874023	931.992310
3483.227539	943.407532
3482.581055	981.877869
3481.934570	1012.603210
3481.287109	985.354370
3480.640625	969.706482
3479.993164	988.828186
3479.345703	1085.179321
3478.698242	965.271606
3478.050781	1015.265503
3477.402344	922.435791
3476.754883	980.135986
3476.106445	933.646301
3475.458984	1002.893372
3474.810547	956.417542
3474.162109	990.930969
3473.513672	1002.300842
3472.865234	1052.208618
3472.215820	1017.320068
3471.567383	982.445251
3470.917969	1105.514893
3470.269531	1074.487671
3469.620117	1016.519409
3468.970703	1012.469788
3468.321289	1054.608887
3467.670898	1050.553345
3467.021484	1034.957031
3466.372070	1038.600220
3465.721680	1053.779785
3465.071289	1022.811401
3464.420898	1076.432007
3463.770508	1057.002319
3463.120117	1060.637573
3462.469727	1052.744995
3461.818359	1167.779663
3461.167969	1075.375366
3460.516602	1190.360352
3459.865234	1074.953125
3459.213867	1101.610718
3458.562500	1143.608276
3457.911133	1120.362793
3457.259766	1208.373413
3456.607422	1127.593994
3455.956055	1142.711304
3455.303711	1073.477905
3454.651367	1130.763916
3453.999023	1130.542358
3453.346680	1229.942261
3452.694336	1168.407715
3452.041016	1187.329224
3451.388672	1248.366089
3450.735352	1163.892578
3450.082031	1156.008911
3449.428711	1167.263794
3448.775391	1170.861694
3448.122070	1235.667603
3447.468750	1185.702637
3446.814453	1265.776733
3446.161133	1257.882324
3445.506836	1188.829346
3444.852539	1188.596802
3444.198242	1161.616577
3443.543945	1249.257690
3442.889648	1245.193726
3442.235352	1202.942749
3441.580078	1179.798950
3440.924805	1255.915771
3440.270508	1309.103027
3439.615234	1182.923218
3438.959961	1232.288818
3438.304688	1277.820801
3437.648438	1201.298218
3436.993164	1250.631348
3436.336914	1334.254517
3435.681641	1372.108154
3435.025391	1257.520264
3434.369141	1299.183960
3433.712891	1317.976196
3433.056641	1378.654053
3432.400391	1378.385010
3431.743164	1362.888184
3431.085938	1301.723022
3430.429688	1267.219971
3429.772461	1369.700317
3429.115234	1399.864990
3428.458008	1350.150024
3427.800781	1338.479248
3427.142578	1372.434082
3426.485352	1345.559448
3425.827148	1318.695313
3425.168945	1451.421997
3424.510742	1386.559692
3423.852539	1336.914917
3423.194336	1435.384644
3422.536133	1442.698242
3421.876953	1419.642212
3421.218750	1419.365723
3420.559570	1502.565186
3419.900391	1380.876831
3419.241211	1395.779541
3418.582031	1452.390015
3417.922852	1508.978394
3417.263672	1527.638062
3416.603516	1421.222778
3415.944336	1345.162476
3415.284180	1435.823608
3414.624023	1511.298706
3413.963867	1514.791748
3413.303711	1484.207153
3412.643555	1423.350464
3411.982422	1453.351807
3411.322266	1540.102051
3410.661133	1418.737061
3410.000000	1516.807983
3409.338867	1414.403809
3408.677734	1425.472168
3408.016602	1497.021973
3407.355469	1526.968018
3406.693359	1560.681396
3406.032227	1564.156372
3405.370117	1594.071899
3404.708008	1574.878784
3404.045898	1476.398193
3403.383789	1498.762817
3402.721680	1543.765625
3402.059570	1581.203369
3401.396484	1482.797852
3400.734375	1573.044922
3400.071289	1599.140503
3399.408203	1564.892700
3398.745117	1594.749756
3398.082031	1586.901611
3397.417969	1575.287720
3396.754883	1495.856201
3396.090820	1506.867554
3395.427734	1578.137573
3394.763672	1540.174316
3394.099609	1634.000000
3393.435547	1637.447388
3392.771484	1644.656860
3392.106445	1629.286743
3391.442383	1568.777954
3390.777344	1587.280518
3390.112305	1602.015137
3389.448242	1586.665161
3388.783203	1616.430664
3388.117188	1623.634277
3387.452148	1705.988647
3386.787109	1626.761963
3386.121094	1596.396851
3385.456055	1554.777100
3384.790039	1659.609497
3384.124023	1629.255615
3383.458008	1673.979858
3382.791992	1632.377075
3382.125000	1793.390991
3381.458984	1654.251587
3380.791992	1706.437012
3380.125000	1691.107788
3379.458984	1660.788696
3378.791992	1619.236572
3378.125000	1585.195557
3377.457031	1719.772705
3376.790039	1663.249023
3376.122070	1651.691040
3375.455078	1726.263428
3374.787109	1695.978271
3374.119141	1789.229004
3373.451172	1729.003784
3372.783203	1698.735596
3372.114258	1765.744629
3371.446289	1701.818481
3370.777344	1780.019531
3370.109375	1835.757324
3369.440430	1738.211792
3368.771484	1760.299805
3368.102539	1864.585327
3367.433594	1729.731567
3366.763672	1673.369019
3366.094727	1833.627808
3365.424805	1706.325562
3364.754883	1803.054443
3364.084961	1791.508789
3363.415039	1865.794189
3362.745117	1850.510010
3362.075195	1786.739746
3361.404297	1786.394287
3360.734375	1741.304443
3360.063477	1819.255493
3359.392578	1874.812744
3358.721680	1848.364502
3358.050781	1810.749023
3357.379883	1646.494629
3356.708984	1813.773560
3356.037109	1798.528442
3355.366211	1827.964355
3354.694336	1745.722168
3354.022461	1857.029907
3353.350586	1726.443726
3352.678711	1748.430420
3352.005859	1785.286133
3351.333984	1814.690186
3350.661133	1821.775391
3349.989258	1825.140625
3349.316406	1895.401001
3348.643555	1887.603271
3347.970703	1801.792847
3347.297852	1886.874146
3346.624023	1797.383179
3345.951172	1897.283936
3345.277344	1859.795776
3344.603516	1900.262451
3343.930664	2014.928223
3343.256836	1840.168213
3342.582031	1977.057007
3341.908203	1935.880737
3341.234375	1961.461914
3340.559570	1935.133057
3339.884766	1886.575684
3339.210938	1852.859985
3338.536133	1848.797119
3337.861328	1989.203125
3337.185547	1944.376099
3336.510742	1929.189331
3335.834961	1932.518921
3335.160156	1954.354370
3334.484375	1905.867676
3333.808594	1838.899780
3333.132813	2008.711792
3332.457031	1967.639771
3331.781250	1933.979126
3331.104492	1959.485718
3330.428711	1866.696777
3329.751953	1888.510620
3329.075195	2006.386108
3328.398438	1906.253052
3327.721680	1916.965698
3327.044922	1894.438477
3326.368164	2012.221558
3325.690430	2019.216064
3325.012695	1930.248779
3324.335938	1977.846436
3323.658203	1896.300049
3322.980469	1995.525757
3322.302734	1928.758789
3321.624023	1950.509521
3320.946289	1913.268433
3320.267578	1997.671143
3319.589844	1871.994629
3318.911133	1919.529297
3318.232422	1963.362061
3317.553711	2018.226563
3316.874023	1918.417969
3316.195313	2002.721558
3315.516602	1983.931152
3314.836914	2075.549561
3314.157227	1968.447876
3313.477539	1971.746582
3312.797852	2008.145142
3312.118164	2044.529663
3311.438477	1966.928467
3310.757813	2025.361450
3310.078125	2054.371094
3309.397461	2064.997559
3308.716797	2093.988281
3308.036133	2027.470947
3307.355469	2038.096313
3306.674805	2169.878174
3305.993164	2070.346924
3305.312500	2069.947266
3304.630859	2021.845215
3303.949219	2072.816650
3303.267578	2068.748535
3302.585938	2127.025879
3301.904297	1961.619141
3301.222656	2104.209229
3300.540039	2129.459229
3299.858398	2037.436646
3299.175781	2059.025879
3298.493164	2043.976074
3297.810547	2076.542480
3297.127930	1980.939209
3296.445313	2031.809448
3295.761719	2016.776367
3295.079102	2115.193604
3294.395508	2048.926758
3293.711914	2033.898682
3293.028320	1989.617188
3292.344727	2062.366455
3291.661133	2113.151855
3290.977539	2109.088379
3290.292969	2064.826416
3289.608398	2064.427490
3288.924805	2089.600830
3288.240234	2129.374268
3287.555664	2132.614502
3286.871094	2073.786133
3286.185547	2047.833252
3285.500977	2058.386475
3284.815430	2156.509521
3284.130859	2145.148438
3283.445313	2137.438965
3282.759766	2122.438721
3282.074219	2016.291748
3281.387695	2136.200195
3280.702148	2219.615234
3280.015625	2237.406250
3279.330078	2145.891846
3278.643555	2112.694092
3277.957031	2126.853271
3277.270508	2115.518555
3276.583984	2122.390625
3275.896484	2114.700928
3275.209961	2117.931152
3274.522461	2055.669922
3273.835938	2142.576172
3273.148438	2178.531250
3272.460938	2109.021484
3271.772461	2054.080566
3271.084961	2079.127441
3270.397461	2115.066650
3269.708984	2063.789795
3269.020508	2146.943359
3268.333008	2135.632080
3267.644531	2051.698730
3266.956055	2127.544922
3266.266602	2141.653076
3265.578125	2104.946777
3264.888672	2046.483276
3264.200195	2085.993408
3263.510742	2067.454346
3262.821289	2168.593750
3262.131836	2150.045654
3261.442383	2091.629395
3260.751953	2156.462402
3260.062500	2094.443604
3259.372070	2083.169678
3258.682617	2111.744141
3257.992188	2078.741943
3257.301758	2045.752319
3256.610352	2150.339111
3255.919922	2117.348389
3255.229492	2080.751465
3254.538086	2091.202637
3253.846680	2079.945801
3253.156250	2162.724854
3252.464844	2068.292725
3251.773438	2151.041748
3251.081055	2147.010498
3250.389648	2103.229248
3249.697266	2120.887207
3249.005859	2102.414551
3248.313477	2022.549805
3247.621094	2199.096924
3246.928711	2155.347168
3246.236328	2108.004639
3245.542969	2024.591675
3244.850586	2038.632080
3244.157227	2095.957031
3243.463867	2156.866211
3242.770508	2062.689453
3242.077148	2000.997803
3241.383789	2188.054443
3240.690430	2090.322021
3239.996094	2172.792725
3239.302734	2132.742920
3238.608398	1927.020508
3237.914063	2099.504639
3237.219727	2113.499512
3236.525391	2059.092285
3235.831055	2051.494629
3235.135742	2069.088867
3234.441406	1960.755859
3233.746094	2104.256104
3233.050781	2042.710205
3232.355469	2074.674316
3231.660156	2020.347900
3230.964844	2127.782471
3230.268555	2026.750610
3229.573242	2155.698975
3228.876953	1979.265869
3228.180664	1982.473022
3227.485352	2104.173096
3226.788086	2085.814209
3226.091797	1999.264771
3225.395508	2120.890381
3224.698242	2027.191772
3224.001953	1915.593018
3223.304688	2022.817505
3222.607422	1982.979980
3221.910156	2065.053223
3221.212891	2025.222778
3220.514648	2053.499268
3219.817383	2114.012207
3219.119141	2059.865479
3218.421875	1944.851318
3217.723633	1991.025879
3217.025391	2137.430420
3216.327148	1947.296387
3215.627930	1993.443237
3214.929688	1942.960571
3214.230469	1974.780151
3213.532227	1867.091675
3212.833008	1981.163818
3212.133789	2023.683105
3211.434570	2001.840942
3210.734375	1937.118896
3210.035156	1965.328369
3209.334961	1897.065674
3208.635742	2007.426147
3207.935547	1939.181763
3207.235352	1906.669189
3206.535156	2027.672485
3205.833984	1909.495483
3205.133789	2080.409180
3204.432617	1890.912598
3203.732422	1908.379395
3203.031250	1993.600342
3202.330078	1932.595215
3201.628906	1860.918823
3200.927734	1928.277466
3200.225586	1931.464966
3199.524414	1809.949951
3198.822266	1827.407837
3198.120117	1941.019531
3197.417969	1848.059814
3196.715820	1822.778442
3196.013672	1897.170532
3195.311523	1900.358887
3194.608398	1839.501465
3193.906250	1821.355713
3193.203125	1831.670044
3192.500000	1866.871826
3191.796875	1930.501831
3191.093750	1915.906494
3190.389648	1773.377686
3189.686523	1972.008667
3188.982422	1847.286743
3188.278320	1793.649048
3187.574219	1846.564819
3186.870117	1814.250366
3186.166016	1863.591431
3185.461914	1831.286011
3184.756836	1877.055908
3184.052734	1929.903076
3183.347656	1840.852539
3182.642578	1776.660278
3181.937500	1882.678711
3181.232422	1875.220703
3180.527344	1892.574463
3179.821289	1831.965210
3179.116211	1704.067261
3178.410156	1806.453613
3177.704102	1837.972168
3176.998047	1788.042725
3176.291992	1784.152466
3175.584961	1780.263672
3174.878906	1822.378052
3174.171875	1935.234009
3173.465820	1768.605713
3172.758789	1810.697266
3172.051758	1771.448242
3171.344727	1792.311768
3170.636719	1802.563599
3169.929688	1823.412476
3169.221680	1759.459961
3168.514648	1808.567749
3167.806641	1854.124512
3167.098633	1853.760742
3166.390625	1758.079346
3165.681641	1747.145386
3164.973633	1778.562500
3164.264648	1718.233765
3163.555664	1791.973999
3162.847656	1763.407471
3162.138672	1731.326050
3161.428711	1797.968994
3160.719727	1639.002563
3160.010742	1740.877686
3159.300781	1772.245605
3158.590820	1764.851807
3157.881836	1750.416992
3157.171875	1785.285400
3156.460938	1718.043213
3155.750977	1756.424072
3155.041016	1798.308716
3154.330078	1717.029297
3153.619141	1741.316040
3152.908203	1733.938965
3152.197266	1828.541138
3151.486328	1761.382080
3150.775391	1701.279541
3150.064453	1722.030396
3149.352539	1721.691162
3148.640625	1809.176025
3147.928711	1668.328613
3147.216797	1759.300781
3146.504883	1699.268921
3145.792969	1712.974609
3145.080078	1716.146240
3144.368164	1645.631592
3143.655273	1662.847534
3142.942383	1676.549072
3142.229492	1753.366333
3141.516602	1749.514160
3140.803711	1700.093872
3140.089844	1713.776855
3139.376953	1671.390869
3138.663086	1737.622803
3137.949219	1894.895630
3137.235352	1719.426880
3136.521484	1712.084595
3135.807617	1683.742188
3135.092773	1711.407837
3134.377930	1683.076416
3133.664063	1745.715332
3132.949219	1759.360840
3132.234375	1671.586792
3131.519531	1660.766968
3130.803711	1740.838379
3130.088867	1660.109497
3129.373047	1708.700684
3128.657227	1596.567627
3127.941406	1711.516846
3127.225586	1669.271484
3126.509766	1710.838745
3125.793945	1679.082397
3125.077148	1682.239746
3124.361328	1737.737183
3123.644531	1695.527710
3122.927734	1698.679443
3122.210938	1639.057495
3121.494141	1757.278931
3120.776367	1732.528320
3120.059570	1756.581421
3119.341797	1735.325195
3118.624023	1797.690796
3117.906250	1786.884277
3117.188477	1647.228760
3116.470703	1702.610718
3115.752930	1733.602539
3115.034180	1688.012329
3114.315430	1778.150146
3113.596680	1777.796631
3112.878906	1714.832520
3112.159180	1759.701172
3111.440430	1773.259033
3110.721680	1783.335083
3110.001953	1776.028931
3109.282227	1758.300903
3108.563477	1886.496704
3107.843750	1799.282959
3107.123047	1712.103882
3106.403320	1857.592529
3105.683594	1732.250366
3104.962891	1721.492920
3104.242188	1752.380249
3103.521484	1772.847168
3102.800781	1824.523682
3102.080078	1820.691772
3101.359375	1789.122925
3100.637695	1754.099854
3099.916992	1826.533936
3099.195313	1833.099731
3098.473633	1877.772461
3097.751953	1787.337769
3097.030273	1707.328491
3096.307617	1724.299683
3095.585938	1831.269531
3094.863281	1827.442383
3094.140625	1906.665649
3093.418945	1750.598755
3092.695313	1795.215454
3091.972656	1819.064331
3091.250000	1777.209106
3090.526367	1752.655029
3089.803711	1904.377930
3089.080078	1810.697266
3088.356445	1872.521729
3087.632813	1792.701294
3086.908203	1885.585327
3086.184570	1881.754639
3085.459961	1808.884033
3084.736328	1905.159912
3084.011719	1835.764160
3083.287109	1783.646118
3082.561523	1869.520752
3081.836914	1841.556763
3081.112305	1879.114136
3080.386719	1882.184082
3079.661133	1761.177612
3078.935547	1936.561646
3078.209961	1887.940552
3077.484375	1922.005737
3076.758789	1880.294189
3076.032227	2021.082031
3075.305664	2013.790894
3074.580078	1937.668823
3073.853516	1944.161011
3073.126953	1885.284668
3072.399414	1977.774658
3071.672852	1953.304077
3070.945313	1925.405029
3070.218750	2065.956055
3069.491211	2178.955322
3068.763672	2010.145264
3068.035156	1995.998291
3067.307617	2057.421631
3066.580078	1984.891235
3065.851563	2022.258057
3065.123047	2039.013550
3064.394531	2131.265869
3063.666016	2130.835693
3062.937500	2109.821777
3062.208984	2071.666748
3061.479492	2064.389893
3060.750977	2170.257080
3060.021484	2132.112305
3059.291992	2097.410156
3058.562500	2079.853760
3057.832031	2291.830078
3057.102539	2329.041992
3056.372070	2201.869141
3055.642578	2160.339600
3054.912109	2289.975586
3054.181641	2364.802246
3053.450195	2357.480225
3052.719727	2254.375488
3051.989258	2472.812256
3051.257813	2386.822998
3050.526367	2417.108643
3049.794922	2375.600830
3049.063477	2443.467773
3048.332031	2388.304199
3047.599609	2568.870361
3046.868164	2486.380371
3046.135742	2540.510010
3045.403320	2656.069092
3044.670898	2669.182861
3043.938477	2689.115967
3043.206055	2623.743652
3042.472656	2609.565430
3041.740234	2704.528809
3041.006836	2738.076904
3040.273438	2771.611084
3039.540039	2798.314453
3038.806641	2985.169922
3038.072266	2892.572266
3037.338867	2905.608398
3036.604492	3020.808594
3035.870117	3074.672363
3035.135742	3227.237305
3034.401367	3274.229492
3033.666992	3266.755859
3032.931641	3317.122314
3032.197266	3449.103271
3031.461914	3407.590088
3030.726563	3597.299805
3029.991211	3657.754395
3029.255859	3667.203613
3028.519531	3836.354980
3027.784180	3927.298584
3027.047852	3936.685791
3026.311523	4183.783691
3025.575195	4152.371094
3024.838867	4341.615723
3024.102539	4381.453613
3023.365234	4506.103516
3022.628906	4742.652832
3021.891602	4782.382813
3021.154297	4883.135254
3020.416992	5010.968750
3019.679688	5413.312988
3018.941406	5161.418945
3018.204102	5611.002441
3017.465820	5613.239258
3016.727539	5960.937988
3015.989258	6142.569336
3015.250977	6131.151855
3014.512695	6414.217285
3013.773438	6561.800781
3013.035156	7037.515137
3012.295898	6961.648926
3011.556641	7318.712891
3010.817383	7459.224121
3010.078125	7748.424805
3009.337891	8027.366211
3008.598633	8235.227539
3007.858398	8250.424805
3007.118164	8826.339844
3006.377930	9023.774414
3005.637695	9217.750000
3004.896484	9485.912109
3004.156250	9983.467773
3003.415039	10089.389648
3002.673828	10670.955078
3001.933594	10918.354492
3001.191406	11347.753906
3000.450195	11409.471680
2999.708984	11825.107422
2998.966797	12385.488281
2998.224609	12605.316406
2997.482422	12919.379883
2996.740234	13139.003906
2995.998047	13341.700195
2995.255859	13598.177734
2994.512695	14322.424805
2993.769531	14194.943359
2993.027344	14555.384766
2992.284180	14848.396484
2991.540039	15168.191406
2990.796875	15107.885742
2990.053711	15161.905273
2989.309570	15787.295898
2988.565430	15676.487305
2987.821289	16398.941406
2987.077148	16472.796875
2986.333008	16684.312500
2985.587891	16583.476563
2984.843750	16851.945313
2984.098633	16942.419922
2983.353516	17230.833984
2982.608398	17240.671875
2981.863281	18021.962891
2981.117188	17605.736328
2980.372070	17980.937500
2979.625977	18386.148438
2978.879883	18506.322266
2978.133789	18907.900391
2977.387695	19218.861328
2976.641602	19080.884766
2975.894531	19408.417969
2975.148438	19615.289063
2974.401367	19721.654297
2973.654297	20346.681641
2972.907227	20556.566406
2972.159180	21107.560547
2971.412109	21213.517578
2970.664063	21423.083984
2969.916016	21876.599609
2969.168945	21965.611328
2968.419922	22398.769531
2967.671875	22768.265625
2966.923828	23194.390625
2966.174805	23677.103516
2965.425781	24179.646484
2964.677734	24635.242188
2963.927734	24810.302734
2963.178711	25429.070313
2962.429688	25984.191406
2961.679688	26525.734375
2960.930664	27037.037109
2960.180664	27518.115234
2959.430664	27865.662109
2958.680664	28512.986328
2957.929688	29363.275391
2957.179688	29693.550781
2956.428711	30100.283203
2955.677734	31092.871094
2954.926758	31272.757813
2954.175781	31362.703125
2953.424805	31815.316406
2952.672852	32334.273438
2951.921875	32686.697266
2951.169922	33225.199219
2950.417969	33773.445313
2949.666016	33673.253906
2948.913086	34221.167969
2948.161133	35111.082031
2947.408203	35053.847656
2946.656250	35129.484375
2945.903320	35802.796875
2945.149414	35997.753906
2944.396484	35963.597656
2943.643555	36875.226563
2942.889648	36744.675781
2942.135742	36770.078125
2941.382813	37060.781250
2940.627930	37294.988281
2939.874023	37671.636719
2939.120117	37550.980469
2938.365234	37668.945313
2937.610352	37965.753906
2936.856445	38278.992188
2936.100586	38469.570313
2935.345703	38573.980469
2934.590820	39158.308594
2933.834961	39163.238281
2933.080078	39015.964844
2932.324219	38822.433594
2931.568359	39217.679688
2930.811523	38954.742188
2930.055664	39035.722656
2929.299805	40108.218750
2928.542969	39412.359375
2927.786133	40077.945313
2927.029297	39930.691406
2926.272461	40133.542969
2925.514648	40976.824219
2924.757813	41057.226563
2924.000000	41701.925781
2923.242188	41798.625000
2922.484375	42208.667969
2921.726563	42430.535156
2920.968750	42846.855469
2920.209961	43414.636719
2919.451172	43748.156250
2918.693359	44397.878906
2917.934570	44908.945313
2917.174805	45044.281250
2916.416016	45848.078125
2915.656250	46200.449219
2914.897461	46924.640625
2914.137695	46687.511719
2913.377930	47210.562500
2912.618164	47595.218750
2911.857422	47979.703125
2911.097656	47663.613281
2910.336914	48195.847656
2909.576172	47925.851563
2908.815430	47554.093750
2908.054688	47570.175781
2907.293945	47280.761719
2906.532227	47231.199219
2905.770508	47168.523438
2905.009766	46807.148438
2904.248047	46117.726563
2903.485352	45999.531250
2902.723633	45418.828125
2901.960938	45090.914063
2901.199219	44454.902344
2900.436523	44501.062500
2899.673828	44225.984375
2898.911133	43361.164063
2898.147461	42811.230469
2897.384766	42117.406250
2896.621094	41227.382813
2895.857422	41061.328125
2895.093750	40495.976563
2894.330078	40009.414063
2893.566406	39015.886719
2892.801758	38991.101563
2892.037109	38021.109375
2891.272461	37473.351563
2890.507813	37314.863281
2889.743164	36326.238281
2888.978516	35612.531250
2888.212891	35026.546875
2887.447266	34130.500000
2886.681641	33355.671875
2885.916016	32088.164063
2885.150391	31039.906250
2884.384766	30762.298828
2883.618164	29558.160156
2882.851563	29153.763672
2882.084961	27738.494141
2881.318359	26832.509766
2880.551758	25949.736328
2879.785156	24764.226563
2879.017578	24097.347656
2878.250000	22984.423828
2877.482422	22350.787109
2876.714844	21688.115234
2875.947266	20898.753906
2875.178711	20116.244141
2874.411133	19679.033203
2873.642578	19072.820313
2872.874023	18219.648438
2872.105469	17939.236328
2871.335938	17389.068359
2870.567383	17092.701172
2869.797852	16253.695313
2869.028320	16331.379883
2868.258789	15850.256836
2867.489258	15284.895508
2866.719727	14917.861328
2865.949219	14301.002930
2865.179688	14531.573242
2864.409180	13872.877930
2863.638672	14087.215820
2862.867188	13743.541992
2862.096680	13432.446289
2861.326172	13238.207031
2860.554688	13060.259766
2859.783203	12853.220703
2859.011719	12691.633789
2858.240234	12598.143555
2857.467773	12300.653320
2856.695313	12417.756836
2855.923828	11997.416992
2855.151367	11826.476563
2854.378906	11959.782227
2853.605469	11785.687500
2852.833008	11563.150391
2852.059570	11327.775391
2851.286133	11331.747070
2850.512695	11374.501953
2849.739258	11300.899414
2848.965820	11191.788086
2848.191406	10950.287109
2847.417969	10776.708984
2846.643555	10919.624023
2845.869141	10707.389648
2845.093750	10656.614258
2844.319336	10428.397461
2843.543945	10574.482422
2842.769531	10568.918945
2841.994141	10240.909180
2841.218750	10170.943359
2840.442383	10055.885742
2839.666992	9857.095703
2838.890625	9890.349609
2838.114258	9746.437500
2837.337891	9657.332031
2836.561523	9651.969727
2835.785156	9492.109375
2835.007813	9380.588867
2834.231445	9372.070313
2833.454102	9215.590820
2832.676758	9271.429688
2831.899414	9034.660156
2831.121094	9299.451172
2830.343750	8940.655273
2829.565430	8909.748047
2828.787109	8907.764648
2828.008789	8574.984375
2827.230469	8627.659180
2826.451172	8725.250977
2825.671875	8694.419922
2824.893555	8583.383789
2824.114258	8510.891602
2823.333984	8614.832031
2822.554688	8436.545898
2821.775391	8562.895508
2820.995117	8195.593750
2820.214844	8414.867188
2819.434570	8134.261230
2818.654297	8190.095215
2817.873047	8127.417969
2817.092773	8215.242188
2816.311523	8136.581055
2815.530273	8083.555176
2814.749023	8219.318359
2813.966797	8019.154785
2813.185547	8078.117188
2812.403320	7922.834961
2811.621094	7927.449219
2810.838867	7829.793457
2810.056641	7815.253418
2809.274414	7902.939453
2808.491211	7968.229492
2807.708008	7800.402832
2806.924805	7670.957520
2806.141602	7701.145508
2805.358398	7769.608887
2804.574219	7633.874512
2803.791016	7625.774902
2803.006836	7684.639648
2802.222656	7666.966309
2801.438477	7419.820801
2800.653320	7638.013672
2799.869141	7569.387207
2799.083984	7529.456543
2798.298828	7620.100098
2797.513672	7500.583496
2796.728516	7594.373047
2795.942383	7366.720703
2795.156250	7629.113281
2794.371094	7484.252441
2793.584961	7514.356934
2792.797852	7385.482422
2792.011719	7504.593262
2791.224609	7502.890625
2790.438477	7536.136719
2789.651367	7391.487793
2788.864258	7313.592773
2788.076172	7289.706543
2787.289063	7373.753906
2786.500977	7305.433594
2785.712891	7180.032715
2784.924805	7302.109863
2784.136719	7484.385742
2783.348633	7298.785156
2782.559570	7186.175293
2781.770508	7244.751953
2780.981445	7008.634277
2780.192383	7165.422363
2779.403320	7236.628906
2778.613281	7079.828613
2777.824219	7135.191895
2777.034180	7272.814941
2776.244141	7144.587891
2775.453125	7158.771484
2774.663086	7289.966309
2773.872070	7361.022949
2773.081055	7258.178711
2772.290039	7360.812988
2771.499023	7163.220703
2770.708008	7385.871582
2769.916016	7257.844727
2769.125000	7290.914063
2768.333008	7484.967285
2767.541016	7262.318359
2766.748047	7494.152344
2765.956055	7577.607910
