#Wave		#Intensity
3495.392578	663.499023
3494.748047	589.776917
3494.104492	628.453491
3493.458984	717.536255
3492.814453	655.349243
3492.169922	666.850586
3491.525391	686.099976
3490.879883	670.462158
3490.234375	693.577881
3489.589844	701.188599
3488.944336	639.078674
3488.297852	666.059326
3487.652344	685.286011
3487.006836	673.537781
3486.360352	688.885254
3485.714844	719.704102
3485.068359	661.532715
3484.421875	626.591370
3483.775391	696.075134
3483.128906	726.868225
3482.482422	707.396973
3481.834961	745.905212
3481.188477	672.341431
3480.541016	691.525085
3479.894531	695.251160
3479.247070	729.869690
3478.599609	710.420837
3477.951172	745.022705
3477.303711	644.529846
3476.656250	756.305115
3476.007813	752.298096
3475.359375	628.720154
3474.711914	736.575989
3474.063477	744.142212
3473.414063	732.430908
3472.765625	751.557373
3472.117188	728.289124
3471.467773	720.440491
3470.819336	758.817383
3470.169922	777.923584
3469.520508	696.913147
3468.871094	769.918274
3468.221680	712.034363
3467.572266	781.159729
3466.921875	654.044495
3466.272461	703.921265
3465.622070	757.624207
3464.971680	688.264404
3464.322266	707.350586
3463.670898	780.238953
3463.020508	780.085632
3462.370117	745.354126
3461.719727	745.207764
3461.068359	756.583008
3460.416992	833.229858
3459.765625	863.778442
3459.114258	794.520203
3458.462891	813.551819
3457.811523	798.045227
3457.160156	771.036621
3456.507813	770.885376
3455.856445	728.554749
3455.204102	724.578125
3454.551758	835.592957
3453.899414	781.777710
3453.247070	789.287476
3452.594727	842.763245
3451.941406	857.918030
3451.289063	769.677429
3450.635742	826.954041
3449.982422	822.964355
3449.329102	784.533264
3448.675781	837.947083
3448.022461	830.132019
3447.369141	803.196350
3446.714844	825.983154
3446.061523	886.993469
3445.407227	890.642395
3444.752930	817.854919
3444.098633	905.578003
3443.444336	924.502197
3442.790039	821.194641
3442.134766	840.127930
3441.480469	859.053772
3440.825195	858.885864
3440.169922	881.617126
3439.514648	839.471313
3438.859375	846.937317
3438.204102	888.729065
3437.548828	922.877319
3436.893555	892.194702
3436.237305	903.456604
3435.581055	853.733215
3434.925781	914.535583
3434.269531	895.307922
3433.612305	910.369507
3432.956055	883.533508
3432.299805	940.474915
3431.642578	852.733948
3430.986328	981.975159
3430.329102	974.172913
3429.671875	913.108948
3429.014648	943.361938
3428.357422	931.768555
3427.700195	935.389282
3427.041992	950.413574
3426.384766	923.621887
3425.726563	934.842407
3425.069336	881.468201
3424.411133	945.874207
3423.752930	972.275574
3423.093750	1097.394165
3422.435547	937.728577
3421.777344	1024.847778
3421.118164	982.903259
3420.458984	967.534851
3419.800781	910.443726
3419.141602	989.914856
3418.481445	929.049500
3417.822266	1016.068604
3417.163086	909.735107
3416.502930	1038.412109
3415.843750	996.530151
3415.183594	905.415833
3414.523438	1026.443359
3413.863281	1007.309326
3413.203125	1082.836182
3412.542969	1025.844604
3411.881836	980.229126
3411.221680	995.174255
3410.560547	1097.127075
3409.899414	1006.134766
3409.238281	1104.264038
3408.577148	922.561890
3407.916016	1035.790283
3407.254883	1050.707153
3406.592773	1061.839355
3405.931641	1035.186646
3405.269531	1178.523804
3404.607422	1027.231445
3403.945313	1008.152649
3403.283203	1158.961670
3402.621094	1087.023193
3401.958008	1101.906738
3401.295898	1086.601196
3400.632813	992.085510
3399.969727	1056.007690
3399.306641	1097.280762
3398.643555	1048.057861
3397.980469	1100.624146
3397.317383	1100.410522
3396.653320	1062.519043
3395.990234	1017.108154
3395.326172	1096.003906
3394.662109	1088.260132
3393.998047	1065.459717
3393.333984	1121.715332
3392.669922	1080.100220
3392.005859	1106.229492
3391.340820	1087.205322
3390.675781	1102.039429
3390.011719	1098.065308
3389.346680	1214.405273
3388.681641	1150.266113
3388.016602	1146.284912
3387.350586	1108.486938
3386.685547	1164.624878
3386.019531	1224.497314
3385.354492	1115.353394
3384.688477	1175.212158
3384.022461	1171.230469
3383.356445	1208.535767
3382.690430	1219.559082
3382.023438	1211.819336
3381.357422	1177.825317
3380.690430	1143.844482
3380.023438	1218.614624
3379.357422	1218.378662
3378.690430	1158.172607
3378.022461	1146.706177
3377.355469	1221.417847
3376.688477	1232.419189
3376.020508	1243.416382
3375.353516	1303.087769
3374.685547	1227.959961
3374.017578	1250.180664
3373.349609	1115.214722
3372.681641	1223.505615
3372.012695	1178.378174
3371.344727	1282.874634
3370.675781	1204.098267
3370.006836	1263.684692
3369.338867	1229.798340
3368.669922	1248.246826
3368.000000	1266.688110
3367.331055	1296.329590
3366.662109	1236.317383
3365.992188	1239.812622
3365.323242	1254.507446
3364.653320	1317.724609
3363.983398	1295.076538
3363.313477	1279.900269
3362.643555	1309.498901
3361.972656	1312.975708
3361.302734	1372.391113
3360.631836	1293.825073
3359.961914	1330.853760
3359.291016	1338.050903
3358.620117	1408.594604
3357.949219	1236.939209
3357.277344	1281.400146
3356.606445	1344.465210
3355.935547	1344.205322
3355.263672	1418.402466
3354.591797	1369.740723
3353.919922	1384.361694
3353.248047	1410.138916
3352.576172	1476.825806
3351.904297	1417.032471
3351.231445	1409.321655
3350.559570	1312.386353
3349.886719	1390.191650
3349.213867	1397.355835
3348.541016	1393.370239
3347.868164	1355.951782
3347.195313	1307.404907
3346.521484	1344.287476
3345.848633	1447.985718
3345.174805	1384.600830
3344.500977	1517.942017
3343.828125	1391.487305
3343.153320	1476.546631
3342.479492	1498.516724
3341.805664	1424.057617
3341.131836	1427.490356
3340.457031	1419.800659
3339.782227	1508.478516
3339.107422	1471.130981
3338.432617	1422.683105
3337.757813	1492.787964
3337.083008	1477.685913
3336.408203	1521.833618
3335.732422	1469.711182
3335.057617	1565.661987
3334.381836	1469.143677
3333.706055	1409.661621
3333.030273	1542.560181
3332.354492	1542.262329
3331.677734	1464.311646
3331.001953	1534.272827
3330.325195	1541.369263
3329.649414	1526.289185
3328.972656	1559.248657
3328.295898	1573.724365
3327.619141	1510.631470
3326.941406	1480.797729
3326.264648	1580.197266
3325.587891	1620.496948
3324.910156	1609.112183
3324.232422	1468.584961
3323.554688	1619.558594
3322.876953	1545.476196
3322.199219	1545.177979
3321.521484	1530.131348
3320.842773	1621.994873
3320.165039	1614.310425
3319.486328	1625.053589
3318.807617	1621.055664
3318.128906	1624.426270
3317.450195	1554.139648
3316.771484	1561.203735
3316.091797	1568.265137
3315.413086	1593.727051
3314.733398	1655.978638
3314.053711	1571.036377
3313.374023	1670.053467
3312.694336	1610.885986
3312.014648	1603.220825
3311.334961	1632.322510
3310.654297	1617.304688
3309.974609	1639.042358
3309.293945	1642.400269
3308.613281	1660.450928
3307.932617	1601.364746
3307.251953	1659.809937
3306.571289	1721.903931
3305.889648	1725.242310
3305.208984	1622.148682
3304.527344	1599.819580
3303.845703	1720.574707
3303.164063	1668.891968
3302.482422	1723.577515
3301.800781	1778.241943
3301.119141	1678.922852
3300.436523	1733.574585
3299.753906	1674.610229
3299.072266	1718.250732
3298.389648	1721.581787
3297.707031	1754.209473
3297.024414	1757.532349
3296.340820	1782.818726
3295.658203	1705.612061
3294.974609	1895.571777
3294.291992	1668.366455
3293.608398	1711.940186
3292.924805	1700.637695
3292.241211	1773.440796
3291.556641	1747.507202
3290.873047	1750.824829
3290.189453	1765.104614
3289.504883	1709.957275
3288.820313	1826.524658
3288.135742	1771.386719
3287.451172	1690.708496
3286.766602	1712.287476
3286.082031	1748.458984
3285.396484	1726.224121
3284.711914	1645.616577
3284.026367	1700.020386
3283.340820	1670.512695
3282.655273	1783.237671
3281.969727	1771.955200
3281.284180	1855.454468
3280.597656	1785.848755
3279.912109	1767.284302
3279.225586	1759.656372
3278.539063	1693.751709
3277.852539	1733.483887
3277.166016	1707.661377
3276.479492	1776.498291
3275.791992	1710.640991
3275.105469	1866.785645
3274.417969	1720.894531
3273.731445	1764.212524
3273.043945	1734.776611
3272.356445	1807.164185
3271.667969	1792.273071
3270.980469	1726.501221
3270.292969	1711.631226
3269.604492	1776.700195
3268.916016	1779.989258
3268.228516	1710.638428
3267.540039	1681.257813
3266.850586	1713.607300
3266.162109	1796.761841
3265.473633	1738.348389
3264.784180	1676.328979
3264.094727	1665.121582
3263.406250	1701.069580
3262.716797	1700.740479
3262.027344	1656.904053
3261.336914	1845.078735
3260.647461	1627.269287
3259.958008	1811.753296
3259.267578	1702.718506
3258.577148	1807.429932
3257.886719	1727.409302
3257.196289	1658.281616
3256.505859	1752.080566
3255.815430	1675.736084
3255.124023	1682.648926
3254.433594	1732.973755
3253.742188	1743.489746
3253.050781	1645.506714
3252.359375	1717.504028
3251.667969	1630.409058
3250.976563	1622.864502
3250.284180	1723.733643
3249.592773	1698.108887
3248.900391	1658.044556
3248.208008	1780.517700
3247.515625	1733.231079
3246.823242	1678.742310
3246.130859	1599.008057
3245.437500	1638.394897
3244.745117	1692.198975
3244.051758	1677.441406
3243.359375	1745.643555
3242.666016	1622.701050
3241.972656	1651.229004
3241.278320	1733.814697
3240.584961	1704.647339
3239.890625	1653.871826
3239.197266	1675.166260
3238.502930	1653.230469
3237.808594	1728.533203
3237.114258	1713.796265
3236.419922	1717.063477
3235.725586	1669.943237
3235.030273	1673.217529
3234.335938	1683.685669
3233.640625	1557.466797
3232.945313	1654.262573
3232.250000	1650.345947
3231.554688	1635.646362
3230.859375	1671.270142
3230.163086	1663.758789
3229.467773	1584.395630
3228.771484	1627.192383
3228.075195	1551.458374
3227.378906	1680.420166
3226.682617	1615.474731
3225.986328	1683.356689
3225.290039	1639.967041
3224.592773	1596.594238
3223.895508	1614.219727
3223.199219	1552.936279
3222.501953	1674.550415
3221.804688	1591.768433
3221.106445	1612.965332
3220.409180	1716.578247
3219.711914	1666.082886
3219.013672	1637.100708
3218.315430	1708.413940
3217.617188	1657.949341
3216.918945	1657.626953
3216.220703	1650.145508
3215.522461	1642.666870
3214.823242	1670.972168
3214.125000	1606.253784
3213.425781	1706.088989
3212.726563	1612.780640
3212.027344	1687.548340
3211.328125	1569.257446
3210.627930	1726.204590
3209.928711	1600.805542
3209.228516	1636.219238
3208.529297	1653.759766
3207.829102	1767.714111
3207.128906	1581.706665
3206.428711	1663.502808
3205.727539	1609.642944
3205.027344	1659.286255
3204.327148	1769.560425
3203.625977	1680.041382
3202.924805	1683.280273
3202.223633	1711.476685
3201.522461	1664.799561
3200.821289	1628.833130
3200.119141	1674.840942
3199.417969	1567.630371
3198.715820	1652.815063
3198.013672	1645.369751
3197.311523	1559.591675
3196.609375	1580.647461
3195.907227	1587.457642
3195.205078	1683.230835
3194.501953	1736.271240
3193.798828	1654.115723
3193.096680	1682.245117
3192.393555	1681.916626
3191.690430	1674.477905
3190.986328	1709.695435
3190.283203	1656.054932
3189.579102	1623.753784
3188.875977	1730.007813
3188.171875	1559.188965
3187.467773	1651.209961
3186.763672	1686.390137
3186.059570	1742.854126
3185.354492	1689.279663
3184.650391	1617.985107
3183.945313	1670.881470
3183.241211	1663.460938
3182.536133	1510.651978
3181.831055	1652.173828
3181.125000	1658.940063
3180.419922	1623.174927
3179.714844	1608.683716
3179.008789	1725.276733
3178.302734	1668.267456
3177.596680	1767.096436
3176.890625	1688.857544
3176.184570	1681.447021
3175.478516	1635.108032
3174.771484	1694.942261
3174.065430	1705.223511
3173.358398	1697.815063
3172.651367	1651.508789
3171.944336	1721.899658
3171.237305	1693.281738
3170.529297	1682.346680
3169.822266	1692.617676
3169.114258	1699.351563
3168.407227	1691.953613
3167.699219	1666.900635
3166.991211	1716.005859
3166.283203	1687.427490
3165.574219	1690.625732
3164.866211	1686.765015
3164.157227	1626.456055
3163.448242	1770.760498
3162.740234	1724.565430
3162.031250	1731.278687
3161.321289	1730.938477
3160.612305	1825.763550
3159.903320	1761.973755
3159.193359	1736.964600
3158.483398	1800.029175
3157.773438	1764.456543
3157.063477	1714.812988
3156.353516	1714.475708
3155.643555	1795.093628
3154.932617	1787.702271
3154.222656	1699.390259
3153.511719	1836.246582
3152.800781	1825.334106
3152.089844	1793.327759
3151.378906	1796.490234
3150.667969	1827.770874
3149.956055	1897.695923
3149.245117	1827.050781
3148.533203	1773.997803
3147.821289	1836.867310
3147.109375	1927.803711
3146.397461	1790.502808
3145.684570	1828.760864
3144.972656	1870.513062
3144.259766	1761.374023
3143.547852	1855.743042
3142.834961	1883.435547
3142.122070	1826.957642
3141.408203	1875.680298
3140.695313	1840.257446
3139.982422	1853.912231
3139.268555	1853.546143
3138.554688	1846.173706
3137.840820	1964.893433
3137.126953	1943.494385
3136.413086	1845.079468
3135.699219	1904.221680
3134.984375	1917.844116
3134.270508	1934.959961
3133.555664	2001.045654
3132.840820	1930.697021
3132.125977	1905.836426
3131.411133	1978.880615
3130.695313	1999.462402
3129.980469	1967.612671
3129.264648	1995.176636
3128.548828	1977.314087
3127.833008	2050.271240
3127.117188	1990.499268
3126.401367	1934.242188
3125.685547	1982.729004
3124.968750	1964.885864
3124.251953	2013.347046
3123.536133	2121.095703
3122.819336	2043.940186
3122.102539	2141.177979
3121.384766	1962.938232
3120.667969	1979.978149
3119.950195	2087.625977
3119.233398	2135.994385
3118.515625	2159.956787
3117.797852	2048.068359
3117.080078	2058.108887
3116.362305	2172.596924
3115.643555	2001.594604
3114.925781	2140.410400
3114.207031	2070.392090
3113.488281	2156.954346
3112.769531	2177.395020
3112.050781	2190.872070
3111.332031	2193.913330
3110.612305	2196.952881
3109.893555	2272.976563
3109.173828	2293.373047
3108.454102	2199.115234
3107.734375	2198.677246
3107.014648	2201.712158
3106.293945	2274.186279
3105.574219	2186.949463
3104.853516	2290.633301
3104.133789	2279.766846
3103.413086	2293.189453
3102.692383	2285.794922
3101.970703	2309.614258
3101.250000	2250.210938
3100.529297	2242.828857
3099.807617	2273.573730
3099.085938	2332.026855
3098.364258	2442.422852
3097.642578	2362.269287
3096.920898	2275.221191
3096.199219	2364.787842
3095.476563	2326.236816
3094.753906	2318.849854
3094.031250	2415.274170
3093.309570	2418.250732
3092.585938	2407.390381
3091.863281	2341.202881
3091.140625	2479.034912
3090.416992	2443.970459
3089.693359	2526.428223
3088.970703	2484.457275
3088.247070	2497.778564
3087.522461	2493.824219
3086.798828	2548.578369
3086.075195	2537.709473
3085.350586	2613.144287
3084.625977	2547.045898
3083.901367	2694.910645
3083.176758	2690.920166
3082.452148	2680.032471
3081.727539	2513.966064
3081.001953	2634.135254
3080.277344	2654.289307
3079.551758	2770.935059
3078.826172	2756.595459
3078.100586	2756.041748
3077.375000	2814.041992
3076.648438	2661.955078
3075.922852	2861.112549
3075.196289	2901.844482
3074.469727	2908.144043
3073.743164	2941.968018
3073.016602	2948.256348
3072.290039	2944.223633
3071.562500	3063.989502
3070.835938	3059.934326
3070.108398	3011.194092
3069.380859	3048.391602
3068.653320	3137.114746
3067.925781	3208.625000
3067.197266	3153.023438
3066.469727	3200.463135
3065.741211	3364.615234
3065.012695	3326.177979
3064.285156	3390.712891
3063.555664	3297.385986
3062.827148	3310.442383
3062.098633	3539.571533
3061.369141	3418.837158
3060.640625	3466.144531
3059.911133	3438.022217
3059.181641	3348.224121
3058.452148	3505.159424
3057.721680	3504.450684
3056.992188	3548.266357
3056.261719	3417.426025
3055.531250	3255.826172
3054.801758	3515.306641
3054.070313	3476.950684
3053.339844	3394.130371
3052.609375	3386.601318
3051.877930	3283.311523
3051.147461	3248.451904
3050.416016	3408.473633
3049.684570	3288.151367
3048.953125	3287.484375
3048.221680	3402.983398
3047.489258	3258.822754
3046.757813	3288.898682
3046.025391	3192.623047
3045.292969	3372.910156
3044.560547	3372.224854
3043.828125	3330.589844
3043.094727	3364.031006
3042.362305	3469.091309
3041.628906	3328.559082
3040.895508	3293.784912
3040.163086	3398.794678
3039.428711	3316.303223
3038.695313	3336.073975
3037.961914	3301.325195
3037.227539	3358.559082
3036.493164	3562.208252
3035.759766	3340.166504
3035.025391	3400.760742
3034.290039	3444.312500
3033.555664	3355.138184
3032.821289	3415.691162
3032.085938	3445.606934
3031.350586	3431.301025
3030.615234	3505.400635
3029.879883	3593.066650
3029.144531	3701.088379
3028.409180	3605.190674
3027.672852	3488.948486
3026.936523	3692.027100
3026.200195	3728.626465
3025.463867	3714.283203
3024.727539	3811.962402
3023.991211	3784.032471
3023.253906	3932.552490
3022.517578	3802.837646
3021.780273	3849.542236
3021.042969	4069.166748
3020.305664	4047.991455
3019.568359	4159.018066
3018.830078	4222.554199
3018.092773	4113.266113
3017.354492	4295.347656
3016.616211	4297.853027
3015.877930	4418.871094
3015.139648	4499.213867
3014.401367	4569.368652
3013.662109	4629.342773
3012.922852	4584.408203
3012.184570	4847.311523
3011.445313	4788.822266
3010.705078	4963.662109
3009.965820	4982.924316
3009.226563	4877.124023
3008.486328	5264.723145
3007.746094	5158.907227
3007.006836	5326.732910
3006.266602	5359.406738
3005.525391	5375.184082
3004.785156	5603.622559
3004.043945	5693.591797
3003.303711	5695.791992
3002.562500	5839.681641
3001.821289	5818.239258
3001.080078	6080.069824
3000.337891	6061.957520
2999.596680	6343.853027
2998.854492	6399.834473
2998.113281	6563.613770
2997.371094	6508.357910
2996.628906	6665.309082
2995.885742	6724.542480
2995.143555	6898.216309
2994.400391	6994.400879
2993.658203	7154.484375
2992.915039	7539.924805
2992.171875	7343.260742
2991.428711	7597.338379
2990.684570	7767.249023
2989.941406	7755.553711
2989.197266	8019.469238
2988.453125	8263.112305
2987.708984	8298.353516
2986.964844	8548.553711
2986.220703	8553.496094
2985.475586	8669.235352
2984.731445	8888.987305
2983.986328	9125.428711
2983.241211	9314.794922
2982.496094	9272.601563
2981.750977	9485.333984
2981.004883	9708.038086
2980.259766	9803.245117
2979.513672	10049.251953
2978.767578	9872.893555
2978.021484	10088.625000
2977.275391	10247.318359
2976.528320	10101.167969
2975.782227	10306.668945
2975.035156	10579.040039
2974.288086	10717.412109
2973.541016	10634.862305
2972.793945	11050.855469
2972.046875	11088.688477
2971.298828	11116.471680
2970.551758	11144.242188
2969.803711	11406.003906
2969.055664	11610.836914
2968.307617	11738.728516
2967.559570	12046.968750
2966.810547	11897.484375
2966.062500	12345.815430
2965.313477	12440.053711
2964.564453	12400.730469
2963.815430	12201.231445
2963.066406	12782.583008
2962.316406	12706.514648
2961.567383	12913.968750
2960.817383	12947.940430
2960.067383	13115.249023
2959.317383	13079.166016
2958.567383	13529.629883
2957.816406	13819.980469
2957.066406	13703.823242
2956.315430	14017.324219
2955.564453	14137.574219
2954.813477	14440.863281
2954.062500	14444.482422
2953.311523	14737.592773
2952.559570	15020.598633
2951.808594	15419.897461
2951.056641	15785.772461
2950.304688	15998.553711
2949.552734	16414.009766
2948.799805	16643.181641
2948.047852	17164.646484
2947.294922	17493.218750
2946.541992	17781.794922
2945.789063	18043.683594
2945.036133	18481.410156
2944.283203	19161.244141
2943.530273	19538.814453
2942.776367	19740.384766
2942.022461	20363.126953
2941.268555	20222.851563
2940.514648	20616.447266
2939.760742	21059.597656
2939.005859	20869.544922
2938.251953	21478.125000
2937.497070	21675.658203
2936.742188	21326.607422
2935.987305	21527.394531
2935.232422	21678.433594
2934.476563	21597.707031
2933.721680	21248.958984
2932.965820	21270.917969
2932.209961	21646.810547
2931.454102	21423.939453
2930.698242	21373.097656
2929.941406	21004.921875
2929.185547	21135.964844
2928.428711	20923.294922
2927.671875	20912.238281
2926.915039	20541.158203
2926.158203	20467.439453
2925.401367	20383.843750
2924.643555	20263.972656
2923.885742	20243.156250
2923.127930	20159.654297
2922.370117	19980.523438
2921.612305	19963.070313
2920.854492	19764.269531
2920.095703	19430.386719
2919.336914	19478.974609
2918.579102	19230.968750
2917.820313	19236.744141
2917.060547	19137.111328
2916.301758	18942.021484
2915.541992	18569.220703
2914.783203	18361.162109
2914.023438	18317.740234
2913.263672	18277.626953
2912.503906	17878.962891
2911.743164	17842.244141
2910.983398	17575.365234
2910.222656	17449.960938
2909.461914	17147.123047
2908.701172	17173.021484
2907.940430	17113.484375
2907.178711	17277.330078
2906.417969	17198.089844
2905.656250	17079.482422
2904.894531	16780.382813
2904.132813	16940.869141
2903.371094	16494.273438
2902.609375	16553.054688
2901.846680	16408.464844
2901.083984	16381.980469
2900.321289	16584.988281
2899.558594	16414.257813
2898.795898	16168.230469
2898.033203	16289.242188
2897.269531	16131.782227
2896.505859	16170.875000
2895.743164	16291.801758
2894.978516	16432.314453
2894.214844	16379.676758
2893.451172	15963.873047
2892.686523	16127.257813
2891.922852	15943.892578
2891.158203	16257.620117
2890.393555	16286.794922
2889.627930	16214.634766
2888.863281	16305.889648
2888.097656	16338.296875
2887.333008	16269.432617
2886.567383	16589.201172
2885.800781	16464.804688
2885.035156	16353.517578
2884.269531	16748.115234
2883.502930	16679.226563
2882.736328	16724.537109
2881.969727	16795.916016
2881.203125	16749.880859
2880.436523	16922.277344
2879.669922	16791.490234
2878.902344	16856.267578
2878.134766	16683.197266
2877.367188	16708.880859
2876.599609	16555.451172
2875.832031	16734.164063
2875.063477	16785.853516
2874.294922	16528.365234
2873.527344	16430.410156
2872.758789	16303.219727
2871.989258	16114.291992
2871.220703	15688.091797
2870.452148	15814.696289
2869.682617	15684.493164
2868.913086	15502.356445
2868.143555	14855.750000
2867.374023	14836.263672
2866.603516	14310.227539
2865.833984	14212.950195
2865.063477	14067.027344
2864.292969	13681.035156
2863.522461	13424.982422
2862.751953	13279.323242
2861.981445	13224.526367
2861.209961	12962.252930
2860.438477	12914.029297
2859.666992	12716.750977
2858.895508	12496.876953
2858.124023	12254.421875
2857.351563	12297.071289
2856.580078	12070.953125
2855.807617	11971.184570
2855.035156	12140.086914
2854.262695	12001.513672
2853.489258	11905.055664
2852.716797	12018.872070
2851.943359	11980.656250
2851.169922	12123.499023
2850.396484	11955.984375
2849.623047	11972.738281
2848.849609	12076.713867
2848.075195	11893.165039
2847.301758	11622.502930
2846.527344	11442.361328
2845.752930	11184.827148
2844.977539	11108.129883
2844.203125	10676.547852
2843.427734	10348.380859
2842.653320	9846.203125
2841.877930	9560.279297
2841.101563	8884.417969
2840.326172	8830.883789
2839.550781	8667.815430
2838.774414	8237.432617
2837.998047	8180.853027
2837.221680	8111.416992
2836.445313	7948.648438
2835.668945	7975.852539
2834.891602	7700.556152
2834.114258	7769.625488
2833.336914	7552.392090
2832.559570	7373.844238
2831.782227	7349.699219
2831.004883	7383.422852
2830.226563	7410.703125
2829.448242	7010.647949
2828.669922	7047.633789
2827.891602	7203.428223
2827.113281	7124.763672
2826.333984	7065.394043
2825.555664	7057.399902
2824.776367	7107.163574
2823.997070	7172.944336
2823.217773	7084.748047
2822.437500	7038.274414
2821.658203	6809.090820
2820.877930	6948.592285
2820.097656	6799.638184
2819.317383	6826.949707
2818.537109	6857.451660
2817.755859	6823.894043
2816.975586	6739.127441
2816.194336	6798.432129
2815.413086	6825.708984
2814.631836	6609.823242
2813.849609	6909.010742
2813.068359	6795.534180
2812.286133	6774.825684
2811.503906	6856.412598
2810.721680	6608.799805
2809.939453	6751.090820
2809.157227	6644.161133
2808.374023	6885.379883
2807.590820	6855.094727
2806.807617	6776.940430
2806.024414	7024.346191
2805.241211	6662.213379
2804.457031	6868.061523
2803.673828	6879.270508
2802.889648	6874.530762
2802.105469	6933.548828
2801.320313	6976.603516
2800.536133	6748.793945
2799.750977	6858.768555
2798.966797	6911.363281
2798.181641	6900.248535
2797.396484	6812.732910
2796.610352	7021.256836
2795.825195	6825.561035
2795.039063	6976.720703
2794.252930	7016.489258
2793.466797	6906.782227
2792.680664	7102.326660
2791.893555	7040.325195
2791.107422	7016.483887
2790.320313	7107.025879
2789.533203	6937.067871
2788.746094	6964.072754
2787.958984	7111.709473
2787.170898	7011.694336
2786.382813	7121.169922
2785.594727	7221.076660
2784.806641	7194.057617
2784.018555	7306.585449
2783.230469	7254.192871
2782.441406	7258.879883
2781.652344	7339.622070
2780.863281	7280.917969
2780.074219	7326.771973
2779.285156	7261.761230
2778.495117	7310.762695
2777.706055	7258.445801
2776.916016	7459.332031
2776.125977	7381.689941
2775.334961	7414.798828
2774.544922	7507.980469
2773.753906	7566.337891
2772.962891	7548.799805
2772.171875	7537.589844
2771.380859	7671.729980
2770.589844	7761.581543
2769.797852	7601.889648
2769.005859	7758.021973
2768.213867	7828.848145
2767.421875	7827.050781
2766.629883	7847.340820
2765.836914	7940.176270
