#Wave		#Intensity
3495.387695	725.580200
3494.743164	756.621033
3494.098633	706.039734
3493.454102	810.621338
3492.809570	760.049377
3492.165039	814.177368
3491.519531	837.273804
3490.875000	763.473572
3490.229492	709.076233
3489.583984	755.423584
3488.938477	763.020508
3488.292969	770.614502
3487.647461	797.563782
3487.001953	762.567993
3486.355469	739.196411
3485.709961	793.221558
3485.063477	793.064880
3484.416992	816.115234
3483.770508	877.827332
3483.124023	831.258179
3482.477539	757.648560
3481.830078	815.470825
3481.183594	904.182556
3480.536133	819.012268
3479.888672	861.338196
3479.241211	807.103882
3478.593750	818.527649
3477.946289	860.828674
3477.298828	829.783264
3476.651367	968.532776
3476.002930	856.461731
3475.354492	914.150574
3474.706055	875.406311
3474.057617	809.687744
3473.409180	859.641907
3472.760742	824.785400
3472.112305	913.250671
3471.462891	955.449707
3470.814453	885.928162
3470.165039	893.455994
3469.515625	866.327820
3468.866211	935.449951
3468.216797	900.626465
3467.567383	950.474304
3466.916992	861.799133
3466.267578	834.703735
3465.617188	930.684814
3464.966797	918.966736
3464.316406	922.630432
3463.666016	987.789307
3463.015625	956.853027
3462.365234	875.982483
3461.713867	964.159790
3461.063477	925.565247
3460.412109	1002.178833
3459.760742	998.143127
3459.109375	1001.785522
3458.458008	978.563904
3457.806641	1016.739441
3457.155273	932.147949
3456.502930	1050.857788
3455.850586	985.465332
3455.199219	977.604614
3454.546875	985.078918
3453.894531	1042.369385
3453.242188	1038.333618
3452.588867	1068.776123
3451.936523	1053.246704
3451.283203	984.114136
3450.630859	1006.892273
3449.977539	1010.522827
3449.324219	1040.940796
3448.670898	1113.435547
3448.017578	979.325439
3447.363281	1074.752319
3446.709961	1112.781860
3446.055664	1124.033813
3445.402344	1024.429077
3444.748047	982.189392
3444.093750	1092.806274
3443.439453	1062.030518
3442.785156	1115.296021
3442.129883	1084.527832
3441.475586	1111.041870
3440.820313	1099.372925
3440.165039	1083.891968
3439.509766	1152.364136
3438.854492	1129.248779
3438.199219	1102.328247
3437.543945	1121.180542
3436.887695	1151.463989
3436.232422	1132.178833
3435.576172	1139.580444
3434.919922	1135.547363
3434.263672	1230.571167
3433.607422	1157.958496
3432.951172	1233.899170
3432.294922	1184.159790
3431.637695	1206.769775
3430.981445	1290.268555
3430.324219	1286.211548
3429.666992	1198.454468
3429.009766	1266.690552
3428.352539	1217.002808
3427.695313	1311.825317
3427.037109	1170.908447
3426.379883	1307.513062
3425.721680	1273.056641
3425.063477	1326.000610
3424.405273	1386.521240
3423.747070	1264.716797
3423.088867	1283.456421
3422.430664	1192.091187
3421.771484	1309.526611
3421.113281	1369.991455
3420.454102	1267.279907
3419.794922	1263.239624
3419.135742	1354.020264
3418.476563	1300.668213
3417.817383	1398.988770
3417.158203	1368.392090
3416.498047	1360.546143
3415.838867	1322.390625
3415.178711	1269.096436
3414.518555	1310.513306
3413.858398	1446.585815
3413.198242	1416.015381
3412.537109	1449.808716
3411.876953	1362.479492
3411.216797	1422.757446
3410.555664	1452.746338
3409.894531	1444.899048
3409.233398	1418.146118
3408.572266	1308.221924
3407.911133	1406.254272
3407.249023	1474.012329
3406.587891	1466.168335
3405.925781	1484.773804
3405.264648	1495.817383
3404.602539	1510.633179
3403.940430	1393.288452
3403.278320	1453.419678
3402.615234	1521.076416
3401.953125	1494.365479
3401.291016	1482.756592
3400.627930	1501.329712
3399.964844	1459.552246
3399.301758	1470.581177
3398.638672	1481.605713
3397.975586	1481.318237
3397.312500	1548.864258
3396.648438	1484.511230
3395.985352	1585.933960
3395.321289	1570.560913
3394.657227	1638.037109
3393.993164	1513.478638
3393.329102	1441.666382
3392.665039	1591.923340
3392.000000	1602.902710
3391.335938	1625.163574
3390.670898	1606.042358
3390.006836	1684.701416
3389.341797	1631.738159
3388.676758	1552.482056
3388.010742	1555.939453
3387.345703	1645.819824
3386.680664	1694.339966
3386.014648	1739.085205
3385.348633	1682.417236
3384.683594	1727.147339
3384.017578	1678.011475
3383.351563	1703.958984
3382.684570	1639.836548
3382.018555	1699.547119
3381.352539	1646.703491
3380.685547	1736.391968
3380.018555	1664.813721
3379.351563	1716.975220
3378.684570	1675.413452
3378.017578	1701.320801
3377.350586	1678.511475
3376.683594	1734.375732
3376.015625	1689.097290
3375.347656	1741.193359
3374.680664	1797.013062
3374.012695	1654.429199
3373.344727	1713.986328
3372.675781	1739.845947
3372.007813	1806.845093
3371.339844	1776.574219
3370.670898	1929.547241
3370.001953	1798.319092
3369.333008	1887.682861
3368.664063	1763.988037
3367.995117	1920.581421
3367.326172	1823.078735
3366.657227	1878.752563
3365.987305	2009.092285
3365.317383	1866.824951
3364.648438	1911.259155
3363.978516	1933.282715
3363.308594	1869.473633
3362.637695	1981.035156
3361.967773	1902.321167
3361.297852	1864.660278
3360.626953	1845.656738
3359.956055	1897.490234
3359.286133	1986.575195
3358.615234	2034.634888
3357.943359	1982.081543
3357.272461	1992.873535
3356.601563	2037.179688
3355.929688	1980.932617
3355.258789	2040.115112
3354.586914	2009.943970
3353.915039	2106.312012
3353.243164	2009.167236
3352.571289	2064.578369
3351.898438	2079.056396
3351.226563	2030.313965
3350.553711	2055.946289
3349.881836	2018.378174
3349.208984	2103.464844
3348.536133	2051.039307
3347.863281	2184.380615
3347.190430	2087.389160
3346.516602	2064.704834
3345.843750	2242.519531
3345.169922	2119.588379
3344.496094	2185.983154
3343.822266	2192.982178
3343.148438	2263.047119
3342.474609	2084.568604
3341.800781	2195.420410
3341.125977	2183.873047
3340.452148	2157.501953
3339.777344	2201.561279
3339.102539	2364.183350
3338.427734	2215.530762
3337.752930	2278.073975
3337.078125	2244.302979
3336.402344	2273.491699
3335.727539	2224.926270
3335.051758	2250.405762
3334.376953	2316.582275
3333.701172	2327.234619
3333.025391	2304.590332
3332.348633	2248.668457
3331.672852	2318.491455
3330.997070	2266.285400
3330.320313	2354.559570
3329.643555	2402.147949
3328.967773	2290.837402
3328.291016	2275.618408
3327.613281	2297.339844
3326.936523	2259.968750
3326.259766	2407.214355
3325.582031	2432.589111
3324.905273	2421.047607
3324.227539	2405.820557
3323.549805	2397.977783
3322.872070	2401.203369
3322.194336	2371.237549
3321.515625	2422.398682
3320.837891	2491.971680
3320.159180	2568.889160
3319.481445	2358.352539
3318.802734	2361.581543
3318.124023	2445.846191
3317.445313	2574.271729
3316.765625	2437.537842
3316.086914	2602.729004
3315.407227	2532.293945
3314.728516	2476.605957
3314.048828	2498.203369
3313.369141	2527.149414
3312.689453	2497.239014
3312.009766	2585.007568
3311.329102	2643.330811
3310.649414	2595.036621
3309.968750	2521.036133
3309.289063	2612.406250
3308.608398	2604.554688
3307.927734	2633.434814
3307.247070	2566.827881
3306.565430	2720.532471
3305.884766	2624.568604
3305.203125	2642.411865
3304.522461	2605.208740
3303.840820	2648.729004
3303.159180	2666.557129
3302.477539	2743.052979
3301.795898	2724.191162
3301.113281	2569.702881
3300.431641	2664.498291
3299.749023	2773.914307
3299.066406	2729.415039
3298.384766	2633.651855
3297.702148	2651.454346
3297.018555	2797.403320
3296.335938	2712.664307
3295.653320	2810.963379
3294.969727	2711.616943
3294.286133	2744.021484
3293.603516	2578.882080
3292.919922	2688.102539
3292.235352	2768.028076
3291.551758	2738.246582
3290.868164	2653.648926
3290.183594	2810.278076
3289.500000	2838.965332
3288.815430	2834.763916
3288.130859	2746.560059
3287.446289	2808.107422
3286.761719	2774.706543
3286.076172	2777.820801
3285.391602	2707.943359
3284.706055	2762.152344
3284.021484	2798.099854
3283.335938	2801.206787
3282.650391	2804.312256
3281.964844	2869.398193
3281.278320	2810.519043
3280.592773	2744.373535
3279.906250	2845.871826
3279.220703	2797.960693
3278.534180	2932.191406
3277.847656	2836.938721
3277.161133	2789.056641
3276.474609	2821.280762
3275.787109	2737.023438
3275.100586	2758.328125
3274.413086	2670.476807
3273.725586	2793.637207
3273.038086	2774.913086
3272.350586	2719.834473
3271.663086	2726.579346
3270.975586	2780.573242
3270.287109	2827.278076
3269.599609	2619.631592
3268.911133	2808.021729
3268.222656	2858.325439
3267.534180	2759.729736
3266.845703	2722.890869
3266.157227	2744.143066
3265.467773	2801.678223
3264.779297	2735.824707
3264.089844	2742.551025
3263.400391	2731.139404
3262.710938	2781.379150
3262.021484	2788.092285
3261.332031	2693.305420
3260.642578	2725.402100
3259.952148	2706.757080
3259.262695	2622.908691
3258.572266	2843.349365
3257.881836	2687.078857
3257.191406	2610.523926
3256.500977	2725.858643
3255.809570	2779.620361
3255.119141	2601.770996
3254.427734	2706.186279
3253.737305	2647.787109
3253.045898	2621.958984
3252.354492	2625.067139
3251.663086	2519.720947
3250.970703	2504.775391
3250.279297	2637.997070
3249.586914	2561.613037
3248.895508	2651.424316
3248.203125	2618.406250
3247.510742	2516.793945
3246.818359	2563.238770
3246.125977	2580.789551
3245.432617	2591.115967
3244.740234	2500.411377
3244.046875	2496.319336
3243.353516	2513.868896
3242.660156	2477.321533
3241.966797	2574.184570
3241.273438	2418.687500
3240.580078	2591.205811
3239.885742	2572.687500
3239.192383	2424.485840
3238.498047	2460.033691
3237.803711	2448.753174
3237.109375	2505.884766
3236.415039	2390.208008
3235.719727	2386.145264
3235.025391	2554.803223
3234.330078	2475.159912
3233.635742	2481.873291
3232.940430	2431.044678
3232.245117	2459.336914
3231.549805	2552.325195
3230.853516	2411.658691
3230.158203	2450.718262
3229.461914	2407.129639
3228.766602	2356.373779
3228.070313	2449.291016
3227.374023	2402.136963
3226.677734	2437.569824
3225.981445	2480.167236
3225.284180	2465.331299
3224.587891	2547.372803
3223.890625	2450.024902
3223.193359	2413.684326
3222.496094	2513.616455
3221.798828	2556.148682
3221.101563	2394.355469
3220.404297	2390.306396
3219.706055	2418.505371
3219.008789	2461.022461
3218.310547	2439.054443
3217.612305	2413.513916
3216.914063	2438.105713
3216.215820	2326.667480
3215.516602	2372.739014
3214.818359	2461.729980
3214.119141	2421.899658
3213.420898	2550.189697
3212.721680	2410.229004
3212.022461	2416.910645
3211.322266	2437.887695
3210.623047	2415.969727
3209.923828	2422.645752
3209.223633	2482.906982
3208.523438	2396.699463
3207.824219	2403.375000
3207.124023	2413.618164
3206.422852	2416.717773
3205.722656	2405.539795
3205.022461	2487.143311
3204.321289	2283.302002
3203.620117	2336.361328
3202.919922	2360.869873
3202.218750	2328.319580
3201.517578	2381.338867
3200.815430	2377.310303
3200.114258	2469.497314
3199.412109	2401.322754
3198.710938	2343.860840
3198.008789	2443.122803
3197.306641	2332.264160
3196.604492	2381.649414
3195.902344	2313.557373
3195.199219	2277.519775
3194.497070	2415.834473
3193.793945	2351.332520
3193.090820	2418.447754
3192.387695	2321.967529
3191.684570	2364.176025
3190.981445	2360.159668
3190.278320	2434.327637
3189.574219	2391.215332
3188.870117	2404.957520
3188.166992	2397.384277
3187.462891	2375.609863
3186.758789	2272.187012
3186.053711	2328.536377
3185.349609	2345.825439
3184.645508	2238.920410
3183.940430	2273.957764
3183.235352	2305.434326
3182.530273	2315.621826
3181.825195	2290.350586
3181.120117	2300.536865
3180.415039	2282.366211
3179.708984	2345.699951
3179.003906	2235.418213
3178.297852	2323.529785
3177.591797	2400.982666
3176.885742	2347.403809
3176.179688	2467.300049
3175.472656	2350.023438
3174.766602	2303.562500
3174.059570	2331.413574
3173.353516	2235.454590
3172.646484	2397.691650
3171.939453	2308.828613
3171.231445	2301.305908
3170.524414	2435.159424
3169.817383	2335.739746
3169.109375	2356.479248
3168.401367	2398.404053
3167.693359	2344.959961
3166.985352	2348.030762
3166.277344	2506.427979
3165.569336	2527.112793
3164.860352	2339.590576
3164.152344	2512.008301
3163.443359	2462.131104
3162.734375	2377.006348
3162.025391	2411.799561
3161.316406	2365.496338
3160.607422	2347.408447
3159.897461	2308.183594
3159.188477	2434.566895
3158.478516	2402.385254
3157.768555	2398.391113
3157.058594	2426.088623
3156.348633	2400.968262
3155.637695	2308.981201
3154.927734	2442.252686
3154.216797	2406.587891
3153.506836	2497.574707
3152.795898	2433.776855
3152.084961	2440.330322
3151.374023	2408.208984
3150.662109	2407.734619
3149.951172	2403.746094
3149.239258	2220.567627
3148.527344	2434.414795
3147.815430	2483.105469
3147.103516	2440.478027
3146.391602	2418.932373
3145.679688	2481.636963
3144.966797	2498.694580
3144.254883	2378.905518
3143.541992	2462.628662
3142.829102	2507.738037
3142.116211	2531.789551
3141.403320	2461.170898
3140.690430	2446.664063
3139.976563	2519.776611
3139.263672	2536.798340
3138.549805	2522.284424
3137.835938	2511.278809
3137.122070	2479.266357
3136.408203	2503.284180
3135.693359	2401.277588
3134.979492	2600.286621
3134.264648	2522.793945
3133.549805	2592.261475
3132.834961	2570.762939
3132.120117	2538.781738
3131.405273	2520.798096
3130.690430	2499.325928
3129.974609	2586.202881
3129.259766	2578.702393
3128.543945	2550.243896
3127.828125	2717.392822
3127.112305	2629.552002
3126.396484	2740.756104
3125.679688	2638.982178
3124.963867	2631.479004
3124.247070	2767.041504
3123.530273	2714.163086
3122.813477	2605.498291
3122.096680	2681.701172
3121.379883	2653.276611
3120.663086	2767.783936
3119.945313	2673.134766
3119.227539	2784.107910
3118.509766	2741.749512
3117.792969	2744.687988
3117.074219	2740.660400
3116.356445	2747.079346
3115.638672	2750.014648
3114.919922	2777.310791
3114.201172	2804.595947
3113.483398	2772.727783
3112.764648	2880.002441
3112.044922	2747.281982
3111.326172	2847.564941
3110.607422	2881.760254
3109.887695	2818.627686
3109.167969	2825.016357
3108.449219	2897.410156
3107.728516	2903.780029
3107.008789	2868.474365
3106.289063	2909.567383
3105.569336	2843.031982
3104.848633	2897.995850
3104.127930	2900.888184
3103.407227	2948.879395
3102.686523	2996.851563
3101.965820	3034.400391
3101.245117	2947.115234
3100.523438	2991.591797
3099.802734	3029.118408
3099.081055	3059.699951
3098.359375	3059.088867
3097.637695	3051.550537
3096.915039	3044.014893
3096.193359	3001.858398
3095.471680	2959.718506
3094.749023	3087.182861
3094.026367	3117.708008
3093.303711	3252.008301
3092.581055	3196.015625
3091.858398	3209.208984
3091.134766	3084.096680
3090.412109	3187.183838
3089.688477	3228.019287
3088.964844	3185.907715
3088.241211	3430.556152
3087.517578	3295.161133
3086.793945	3411.915039
3086.069336	3304.198730
3085.345703	3341.508057
3084.621094	3492.694336
3083.896484	3443.685791
3083.171875	3643.088867
3082.447266	3611.315186
3081.721680	3541.620117
3080.997070	3671.926514
3080.271484	3678.083496
3079.545898	3787.630859
3078.820313	3842.001953
3078.094727	3879.125488
3077.369141	3854.235596
3076.643555	3808.693115
3075.916992	3990.405029
3075.190430	4030.910156
3074.464844	4250.360840
3073.738281	4211.655762
3073.010742	4248.650879
3072.284180	4426.650391
3071.557617	4484.218750
3070.830078	4417.991699
3070.102539	4606.160645
3069.375977	4821.747559
3068.647461	4707.386230
3067.919922	4847.287109
3067.192383	5007.738770
3066.463867	5030.767090
3065.736328	4991.986328
3065.007813	5039.035156
3064.279297	5079.201172
3063.550781	5071.313477
3062.822266	5186.927246
3062.092773	5199.599121
3061.364258	5126.537109
3060.634766	5152.928711
3059.905273	5275.286133
3059.175781	5147.418945
3058.446289	5112.115234
3057.716797	5145.337891
3056.986328	5157.997070
3056.256836	5085.043457
3055.526367	5042.931641
3054.795898	5048.756348
3054.065430	5123.022461
3053.334961	4937.224121
3052.603516	4751.500488
3051.873047	4877.081543
3051.141602	4934.223633
3050.410156	4779.380371
3049.678711	4597.255371
3048.947266	4596.323242
3048.215820	4800.389648
3047.484375	4638.865723
3046.751953	4709.644531
3046.019531	4882.831055
3045.287109	4741.870605
3044.554688	4706.775879
3043.822266	4668.282227
3043.089844	4776.510742
3042.356445	4656.151367
3041.624023	4668.846191
3040.890625	4800.875488
3040.157227	4847.625000
3039.423828	4778.471680
3038.690430	4784.314453
3037.956055	4868.513672
3037.222656	4813.022461
3036.488281	4863.125488
3035.753906	4777.013184
3035.019531	4942.843262
3034.285156	4751.241699
3033.550781	4879.578125
3032.815430	4851.366211
3032.080078	4891.192871
3031.345703	4944.605957
3030.610352	4878.996582
3029.875000	4939.187988
3029.138672	5067.326172
3028.403320	5154.637207
3027.666992	5065.255859
3026.931641	5240.839844
3026.195313	5253.351563
3025.458984	5255.672363
3024.722656	5363.219727
3023.985352	5555.565918
3023.249023	5561.214844
3022.511719	5583.822754
3021.774414	5772.612793
3021.038086	5737.520508
3020.299805	5760.077148
3019.562500	6016.504395
3018.825195	6096.604492
3018.086914	6651.017578
3017.348633	6409.141113
3016.611328	6736.345703
3015.873047	6853.477051
3015.133789	7068.736328
3014.395508	6986.051758
3013.657227	7241.802246
3012.917969	7348.580566
3012.178711	7424.871094
3011.439453	7538.330566
3010.700195	7820.804688
3009.960938	7957.798340
3009.220703	8185.990723
3008.481445	8505.325195
3007.741211	8662.362305
3007.000977	8613.290039
3006.260742	9043.780273
3005.520508	9325.532227
3004.779297	9559.907227
3004.039063	9824.559570
3003.297852	10028.365234
3002.556641	10046.538086
3001.815430	10482.941406
3001.074219	10844.974609
3000.333008	11007.939453
2999.590820	11420.274414
2998.849609	11798.737305
2998.107422	12298.341797
2997.365234	12228.425781
2996.623047	12613.219727
2995.880859	13055.097656
2995.137695	13412.625977
2994.395508	13854.153320
2993.652344	14329.148438
2992.909180	14517.960938
2992.166016	15298.727539
2991.422852	15198.028320
2990.679688	15631.996094
2989.935547	16106.124023
2989.191406	16492.666016
2988.448242	16536.291016
2987.704102	17265.265625
2986.959961	17802.474609
2986.214844	17798.779297
2985.470703	18308.791016
2984.725586	18607.107422
2983.980469	18965.707031
2983.235352	19384.554688
2982.490234	19608.650391
2981.745117	19993.646484
2981.000000	20039.787109
2980.253906	20732.976563
2979.507813	21285.089844
2978.761719	21364.441406
2978.015625	21467.210938
2977.269531	21754.179688
2976.523438	22486.468750
2975.776367	22280.871094
2975.030273	22828.611328
2974.283203	22897.486328
2973.536133	23126.957031
2972.789063	23831.419922
2972.041016	24344.919922
2971.293945	24326.458984
2970.545898	24802.857422
2969.797852	24787.646484
2969.049805	25447.564453
2968.301758	25966.861328
2967.553711	26111.767578
2966.805664	26139.707031
2966.056641	26170.970703
2965.307617	26626.234375
2964.558594	27171.431641
2963.809570	27038.921875
2963.060547	27830.707031
2962.311523	27764.828125
2961.561523	27932.439453
2960.811523	28456.769531
2960.061523	28377.455078
2959.311523	28754.810547
2958.561523	29475.240234
2957.811523	29928.830078
2957.060547	29942.529297
2956.310547	30768.818359
2955.559570	30878.888672
2954.808594	31614.744141
2954.057617	31781.164063
2953.305664	32493.222656
2952.554688	33537.660156
2951.802734	33919.753906
2951.050781	34527.816406
2950.298828	35295.203125
2949.546875	36444.523438
2948.794922	37467.070313
2948.041992	38392.824219
2947.290039	39334.796875
2946.537109	40611.808594
2945.784180	42402.953125
2945.031250	42974.968750
2944.277344	44257.031250
2943.524414	45598.273438
2942.770508	46550.773438
2942.017578	47459.746094
2941.263672	49051.488281
2940.509766	49598.132813
2939.754883	50698.132813
2939.000977	51545.781250
2938.246094	52035.207031
2937.491211	53137.285156
2936.737305	52970.359375
2935.981445	53637.968750
2935.226563	53785.511719
2934.471680	53846.925781
2933.715820	53974.496094
2932.959961	53294.707031
2932.205078	53987.972656
2931.448242	53420.902344
2930.692383	53789.800781
2929.936523	53966.800781
2929.179688	53439.738281
2928.423828	53256.550781
2927.666992	53321.207031
2926.910156	52678.996094
2926.152344	52502.671875
2925.395508	52167.941406
2924.637695	51532.968750
2923.880859	51653.996094
2923.123047	50983.097656
2922.365234	50754.511719
2921.607422	49995.035156
2920.848633	49522.742188
2920.090820	48988.007813
2919.332031	48799.570313
2918.573242	48192.714844
2917.814453	47401.617188
2917.055664	47068.695313
2916.295898	46044.351563
2915.537109	45698.679688
2914.777344	44625.683594
2914.017578	44247.542969
2913.257813	43152.273438
2912.498047	42636.437500
2911.738281	42186.593750
2910.977539	41335.781250
2910.216797	40577.375000
2909.456055	40078.945313
2908.695313	39422.992188
2907.934570	39509.812500
2907.173828	38450.238281
2906.412109	37808.179688
2905.651367	37310.855469
2904.889648	37325.816406
2904.127930	36950.230469
2903.365234	36305.746094
2902.603516	36320.902344
2901.840820	35519.394531
2901.079102	35521.585938
2900.316406	35166.437500
2899.553711	35191.640625
2898.791016	35157.843750
2898.027344	34973.355469
2897.264648	34526.898438
2896.500977	34499.804688
2895.737305	34266.449219
2894.973633	34272.148438
2894.209961	33724.761719
2893.445313	33740.382813
2892.681641	33605.515625
2891.916992	33300.632813
2891.152344	33371.910156
2890.387695	32982.203125
2889.623047	32690.716797
2888.857422	33082.300781
2888.092773	33444.312500
2887.327148	32839.335938
2886.561523	32998.769531
2885.795898	33056.914063
2885.030273	33170.523438
2884.263672	33473.355469
2883.498047	33492.199219
2882.731445	33628.457031
2881.964844	33966.859375
2881.198242	34256.199219
2880.430664	34454.132813
2879.664063	34854.046875
2878.896484	34843.210938
2878.128906	35578.410156
2877.361328	35378.503906
2876.593750	35406.621094
2875.826172	36333.292969
2875.058594	35902.234375
2874.290039	36092.921875
2873.521484	36159.886719
2872.752930	36474.031250
2871.984375	36196.152344
2871.214844	35544.472656
2870.446289	35088.117188
2869.676758	34638.457031
2868.907227	33964.785156
2868.137695	33077.000000
2867.368164	32056.437500
2866.598633	30951.888672
2865.828125	29873.791016
2865.058594	28452.113281
2864.288086	27258.207031
2863.517578	25954.511719
2862.746094	25160.630859
2861.975586	24444.923828
2861.204102	23236.716797
2860.433594	22521.738281
2859.662109	21832.996094
2858.889648	20697.427734
2858.118164	20433.738281
2857.346680	18933.005859
2856.574219	18637.433594
2855.801758	17649.228516
2855.029297	17324.935547
2854.256836	16133.593750
2853.484375	15871.238281
2852.710938	14991.234375
2851.938477	14337.971680
2851.165039	14095.577148
2850.391602	13281.184570
2849.618164	12854.929688
2848.843750	12448.245117
2848.070313	12200.013672
2847.295898	11483.630859
2846.521484	11229.260742
2845.747070	10765.185547
2844.972656	10359.403320
2844.197266	10147.390625
2843.422852	10067.727539
2842.647461	9613.989258
2841.872070	9621.535156
2841.096680	9338.947266
2840.320313	9330.433594
2839.544922	9015.809570
2838.768555	8939.716797
2837.993164	8789.578125
2837.216797	8623.405273
2836.439453	8705.195313
2835.663086	8484.394531
2834.885742	8392.409180
2834.109375	8200.728516
2833.332031	8359.732422
2832.554688	8161.710449
2831.777344	8024.861816
2830.999023	8244.869141
2830.220703	7924.882324
2829.443359	7846.007813
2828.665039	7709.347168
2827.886719	7688.360840
2827.107422	7827.922363
2826.329102	7829.387695
2825.549805	7657.545410
2824.770508	7466.526855
2823.991211	7670.167969
2823.211914	7607.518555
2822.432617	7419.842285
2821.652344	7520.769531
2820.872070	7137.685547
2820.092773	7392.437500
2819.311523	7172.937012
2818.531250	7305.854492
2817.750977	7182.535156
2816.969727	7107.292480
2816.188477	7108.900879
2815.407227	7126.508301
2814.625977	7102.515137
2813.844727	7072.134766
2813.062500	7246.432129
2812.281250	6998.622559
2811.499023	7029.015625
2810.716797	7062.589844
2809.933594	6965.152344
2809.151367	6835.813965
2808.368164	7029.085449
2807.585938	6829.546387
2806.802734	7080.188965
2806.018555	6852.003418
2805.235352	6984.469727
2804.452148	6829.776367
2803.667969	6907.968750
2802.883789	6864.959473
2802.099609	6888.913574
2801.315430	6753.500000
2800.530273	6831.635254
2799.746094	6912.919434
2798.960938	7064.235840
2798.175781	6979.848633
2797.390625	6978.270508
2796.604492	7139.014648
2795.819336	6994.205566
2795.033203	7018.072754
2794.247070	7045.108887
2793.460938	7110.291016
2792.674805	6978.332520
2791.888672	7113.424805
2791.101563	7127.699707
2790.314453	7208.685059
2789.527344	7114.935547
2788.740234	7160.953613
2787.953125	7276.796875
2787.165039	7259.271973
2786.377930	7559.097168
2785.589844	7379.706055
2784.801758	7542.969727
2784.012695	7630.047852
2783.224609	7644.163086
2782.435547	7639.251465
2781.647461	7805.472656
2780.858398	7680.126465
2780.068359	8096.503906
2779.279297	8192.831055
2778.490234	8105.473145
2777.700195	8103.622070
2776.910156	8272.667969
2776.120117	8074.606934
2775.330078	8227.762695
2774.539063	8162.629395
2773.748047	8306.207031
2772.958008	8335.916992
2772.166992	8473.066406
2771.375000	8398.452148
2770.583984	8396.527344
2769.791992	8495.666016
2769.000977	8790.523438
2768.208984	8602.255859
2767.416992	8590.812500
2766.624023	8661.412109
2765.832031	8851.854492
