#Wave		#Intensity
3495.491211	477.266479
3494.846680	453.985199
3494.202148	403.462463
3493.557617	492.592133
3492.913086	473.105042
3492.268555	473.011383
3491.624023	531.063354
3490.978516	461.197327
3490.333008	426.232483
3489.688477	492.007416
3489.042969	429.937164
3488.397461	522.793152
3487.750977	464.613129
3487.105469	472.263306
3486.459961	495.391418
3485.813477	456.598724
3485.166992	499.064392
3484.520508	425.474701
3483.874023	491.132874
3483.227539	460.104492
3482.581055	463.879303
3481.934570	537.220764
3481.287109	467.560333
3480.640625	556.325623
3479.993164	482.826263
3479.345703	498.178406
3478.698242	436.302765
3478.050781	501.842255
3477.402344	513.322021
3476.754883	490.067993
3476.106445	578.706360
3475.458984	432.015625
3474.810547	462.782684
3474.162109	478.114563
3473.513672	528.135437
3472.865234	466.363525
3472.215820	454.711243
3471.567383	462.327179
3470.917969	493.051941
3470.269531	539.169434
3469.620117	562.166077
3468.970703	508.159729
3468.321289	527.304443
3467.670898	504.111694
3467.021484	477.080597
3466.372070	480.833466
3465.721680	515.352173
3465.071289	511.405701
3464.420898	499.772003
3463.770508	488.142883
3463.120117	503.418549
3462.469727	522.530334
3461.818359	557.000183
3461.167969	537.687683
3460.516602	545.261841
3459.865234	514.441895
3459.213867	533.532715
3458.562500	575.641785
3457.911133	556.344543
3457.259766	544.727112
3456.607422	510.102051
3455.956055	490.829010
3455.303711	567.409790
3454.651367	548.133057
3453.999023	517.366821
3453.346680	498.107452
3452.694336	566.965027
3452.041016	574.514160
3451.388672	605.036377
3450.735352	589.603455
3450.082031	516.758972
3449.428711	589.372559
3448.775391	512.730286
3448.122070	554.711426
3447.468750	589.026489
3446.814453	577.438904
3446.161133	596.442688
3445.506836	615.439026
3444.852539	622.962341
3444.198242	565.523865
3443.543945	634.179749
3442.889648	630.236084
3442.235352	591.924255
3441.580078	629.989685
3440.924805	610.779724
3440.270508	519.061279
3439.615234	618.172791
3438.959961	625.682251
3438.304688	598.859314
3437.648438	533.910339
3436.993164	648.193054
3436.336914	552.762573
3435.681641	617.448669
3435.025391	624.949463
3434.369141	613.397705
3433.712891	578.995361
3433.056641	559.840149
3432.400391	586.384766
3431.743164	529.166077
3431.085938	624.218079
3430.429688	643.123657
3429.772461	662.021790
3429.115234	627.656860
3428.458008	597.108582
3427.800781	657.832153
3427.142578	600.677551
3426.485352	623.366577
3425.827148	596.643127
3425.168945	596.526855
3424.510742	645.794922
3423.852539	569.708069
3423.194336	588.583618
3422.536133	630.231323
3421.876953	607.333557
3421.218750	645.166260
3420.559570	648.834961
3419.900391	656.295898
3419.241211	675.132507
3418.582031	693.961792
3417.922852	599.041687
3417.263672	617.878418
3416.603516	659.447388
3415.944336	632.794739
3415.284180	666.767700
3414.624023	651.487122
3413.963867	586.981750
3413.303711	692.882446
3412.643555	662.463623
3411.982422	654.765259
3411.322266	684.910217
3410.661133	650.727417
3410.000000	688.426575
3409.338867	741.238342
3408.677734	676.815674
3408.016602	665.343079
3407.355469	733.247070
3406.693359	687.757874
3406.032227	702.736938
3405.370117	672.381042
3404.708008	694.910583
3404.045898	755.190857
3403.383789	770.145081
3402.721680	634.114014
3402.059570	671.728394
3401.396484	667.824951
3400.734375	780.864014
3400.071289	686.423523
3399.408203	648.582031
3398.745117	738.938416
3398.082031	735.025635
3397.417969	689.659485
3396.754883	693.293579
3396.090820	685.624695
3395.427734	708.090332
3394.763672	677.827332
3394.099609	775.585266
3393.435547	670.035950
3392.771484	763.993896
3392.106445	647.199402
3391.442383	741.125305
3390.777344	658.232422
3390.112305	695.710815
3389.448242	751.973999
3388.783203	800.697083
3388.117188	714.098389
3387.452148	665.110107
3386.787109	762.662048
3386.121094	751.245605
3385.456055	796.166016
3384.790039	788.502258
3384.124023	728.284790
3383.458008	660.583984
3382.791992	761.775940
3382.125000	694.094849
3381.458984	798.992310
3380.791992	738.830994
3380.125000	783.684143
3379.458984	783.532349
3378.791992	760.891235
3378.125000	809.461548
3377.457031	783.077332
3376.790039	797.909973
3376.122070	790.264893
3375.455078	760.155090
3374.787109	782.471252
3374.119141	819.751343
3373.451172	729.774353
3372.783203	740.858215
3372.114258	748.196838
3371.446289	804.156006
3370.777344	751.646912
3370.109375	770.195557
3369.440430	758.832275
3368.771484	784.847046
3368.102539	747.328796
3367.433594	810.694885
3366.763672	870.301270
3366.094727	840.257141
3365.424805	780.354614
3364.754883	817.533997
3364.084961	847.234375
3363.415039	854.533752
3362.745117	787.212891
3362.075195	824.362183
3361.404297	898.791260
3360.734375	850.144348
3360.063477	808.972229
3359.392578	860.997498
3358.721680	816.112549
3358.050781	860.664673
3357.379883	905.199524
3356.708984	778.395630
3356.037109	897.402344
3355.366211	770.648926
3354.694336	900.777771
3354.022461	826.173645
3353.350586	896.708862
3352.678711	825.854370
3352.005859	795.940063
3351.333984	855.284302
3350.661133	929.477234
3349.989258	888.408569
3349.316406	832.489868
3348.643555	787.739990
3347.970703	928.759216
3347.297852	794.864319
3346.624023	876.409973
3345.951172	868.814941
3345.277344	883.495789
3344.603516	950.131226
3343.930664	831.204285
3343.256836	845.883789
3342.582031	901.359924
3341.908203	852.974243
3341.234375	930.674744
3340.559570	856.351990
3339.884766	885.838135
3339.210938	841.198425
3338.536133	981.826172
3337.861328	974.227966
3337.185547	948.114868
3336.510742	981.257507
3335.834961	992.174438
3335.160156	977.177185
3334.484375	939.981384
3333.808594	936.099854
3333.132813	921.122009
3332.457031	998.614136
3331.781250	942.953491
3331.104492	953.862915
3330.428711	1020.214478
3329.751953	979.364624
3329.075195	920.055542
3328.398438	1063.955200
3327.721680	1023.120422
3327.044922	1056.158691
3326.368164	967.343201
3325.690430	996.687988
3325.012695	966.969788
3324.335938	1029.513306
3323.658203	973.975098
3322.980469	955.344116
3322.302734	995.726379
3321.624023	980.785461
3320.946289	943.731628
3320.267578	1020.950012
3319.589844	994.957764
3318.911133	1016.871582
3318.232422	1005.624512
3317.553711	1023.844849
3316.874023	1082.562134
3316.195313	1012.405212
3315.516602	1104.228882
3314.836914	1078.255371
3314.157227	1011.819031
3313.477539	1026.338257
3312.797852	1099.698608
3312.118164	1014.910400
3311.438477	1055.156006
3310.757813	1069.655518
3310.078125	1117.225098
3309.397461	1098.637573
3308.716797	1102.099121
3308.036133	1083.521606
3307.355469	1039.245483
3306.674805	1002.329468
3305.993164	1086.565063
3305.312500	1123.056519
3304.630859	1045.781982
3303.949219	1122.622925
3303.267578	1082.058228
3302.585938	1169.864136
3301.904297	1085.307007
3301.222656	1041.107056
3300.540039	1147.195679
3299.858398	1154.303101
3299.175781	1176.062744
3298.493164	1179.498779
3297.810547	1087.712646
3297.127930	1157.073486
3296.445313	1175.154663
3295.761719	1145.646118
3295.079102	1123.467773
3294.395508	1123.250854
3293.711914	1174.247192
3293.028320	1166.705688
3292.344727	1162.823730
3291.661133	1100.447632
3290.977539	1140.442993
3290.292969	1143.877319
3289.608398	1092.502441
3288.924805	1223.804688
3288.240234	1121.299927
3287.555664	1095.521240
3286.871094	1153.726074
3286.185547	1102.398682
3285.500977	1091.236816
3284.815430	1138.461914
3284.130859	1130.945557
3283.445313	1141.669556
3282.759766	1214.385010
3282.074219	1152.166748
3281.387695	1130.071777
3280.702148	1086.117188
3280.015625	1096.839233
3279.330078	1169.492920
3278.643555	1041.776733
3277.957031	1121.696533
3277.270508	1066.862183
3276.583984	1164.948608
3275.896484	1131.965576
3275.209961	1120.829590
3274.522461	1146.081421
3273.835938	1182.236328
3273.148438	1105.631958
3272.460938	1192.688110
3271.772461	1141.559937
3271.084961	1101.355957
3270.397461	1170.191528
3269.708984	1075.496094
3269.020508	1035.328003
3268.333008	1075.080078
3267.644531	1082.134888
3266.956055	1089.186890
3266.266602	1081.716309
3265.578125	1146.833008
3264.888672	1077.669434
3264.200195	1055.693970
3263.510742	1175.184570
3262.821289	1069.791260
3262.131836	1062.332886
3261.442383	1134.627441
3260.751953	1025.678711
3260.062500	1087.081543
3259.372070	1061.510864
3258.682617	1075.794189
3257.992188	1205.959961
3257.301758	1140.552246
3256.610352	1133.091187
3255.919922	1096.677856
3255.229492	1071.134644
3254.538086	1107.107300
3253.846680	1172.004272
3253.156250	1099.445435
3252.464844	1146.239136
3251.773438	1073.713257
3251.081055	1062.661743
3250.389648	1149.187134
3249.697266	1141.738281
3249.005859	1112.617920
3248.313477	1069.062012
3247.621094	1133.852905
3246.928711	1205.839111
3246.236328	1057.611938
3245.542969	1035.753662
3244.850586	1122.149658
3244.157227	1150.792236
3243.463867	1071.219482
3242.770508	1175.588745
3242.077148	1168.150146
3241.383789	1074.201416
3240.690430	1102.825073
3239.996094	1088.198120
3239.302734	1217.680908
3238.608398	1156.212280
3237.914063	1224.411011
3237.219727	1144.962280
3236.525391	1133.940796
3235.831055	1104.927856
3235.135742	1187.477051
3234.441406	1115.292236
3233.746094	1172.628174
3233.050781	1100.474243
3232.355469	1118.238770
3231.660156	1161.160767
3230.964844	1168.123779
3230.268555	1189.458252
3229.573242	1095.813721
3228.876953	1167.443604
3228.180664	1170.808350
3227.485352	1149.036499
3226.788086	1145.223267
3226.091797	1112.696777
3225.395508	1159.133057
3224.698242	1108.676514
3224.001953	1162.269897
3223.304688	1093.899536
3222.607422	1111.616211
3221.910156	1143.666626
3221.212891	1150.613281
3220.514648	1103.800659
3219.817383	1071.338379
3219.119141	1124.865723
3218.421875	1106.738647
3217.723633	1163.819092
3217.025391	1206.556152
3216.327148	1134.729736
3215.627930	1159.561157
3214.929688	1216.586792
3214.230469	1159.110107
3213.532227	1115.962891
3212.833008	1230.181152
3212.133789	1154.858032
3211.434570	1136.759644
3210.734375	1111.520264
3210.035156	1139.890381
3209.334961	1214.693726
3208.635742	1114.442993
3207.935547	1132.082153
3207.235352	1178.278687
3206.535156	1185.188843
3205.833984	1145.697266
3205.133789	1170.453247
3204.432617	1202.334961
3203.732422	1248.472534
3203.031250	1248.229126
3202.330078	1212.329102
3201.628906	1197.832886
3200.927734	1233.242065
3200.225586	1161.729858
3199.524414	1197.132202
3198.822266	1079.346191
3198.120117	1171.734741
3197.417969	1196.431763
3196.715820	1199.758423
3196.013672	1089.182251
3195.311523	1234.877441
3194.608398	1220.404297
3193.906250	1152.576660
3193.203125	1134.568481
3192.500000	1216.133667
3191.796875	1265.669678
3191.093750	1123.240112
3190.389648	1197.651855
3189.686523	1200.971069
3188.982422	1264.680908
3188.278320	1225.364258
3187.574219	1225.124756
3186.870117	1189.381348
3186.166016	1267.242188
3185.461914	1259.896362
3184.756836	1270.294922
3184.052734	1298.427490
3183.347656	1184.671997
3182.642578	1216.356323
3181.937500	1209.027222
3181.232422	1187.521606
3180.527344	1275.892822
3179.821289	1208.317505
3179.116211	1239.965820
3178.410156	1278.685791
3177.704102	1267.811279
3176.998047	1334.835815
3176.291992	1288.554565
3175.584961	1185.662720
3174.878906	1302.204102
3174.171875	1245.342529
3173.465820	1305.231079
3172.758789	1266.073486
3172.051758	1361.292603
3171.344727	1311.533813
3170.636719	1367.827637
3169.929688	1265.080811
3169.221680	1254.233521
3168.514648	1324.634644
3167.806641	1342.032959
3167.098633	1274.681152
3166.390625	1288.552124
3165.681641	1323.594971
3164.973633	1333.921875
3164.264648	1351.300903
3163.555664	1343.980469
3162.847656	1357.823853
3162.138672	1290.560669
3161.428711	1389.019165
3160.719727	1462.765747
3160.010742	1434.285889
3159.300781	1455.144043
3158.590820	1380.882080
3157.881836	1380.610596
3157.171875	1419.072998
3156.460938	1397.670410
3155.750977	1355.156860
3155.041016	1425.274048
3154.330078	1470.734131
3153.619141	1459.891235
3152.908203	1456.086670
3152.197266	1396.020752
3151.486328	1480.123413
3150.775391	1476.316895
3150.064453	1525.226929
3149.352539	1419.516846
3148.640625	1447.340820
3147.928711	1450.567871
3147.216797	1517.001831
3146.504883	1442.974243
3145.792969	1491.832397
3145.080078	1505.576172
3144.368164	1435.103027
3143.655273	1452.360474
3142.942383	1504.685303
3142.229492	1507.895020
3141.516602	1507.597412
3140.803711	1668.545776
3140.089844	1601.627808
3139.376953	1587.295654
3138.663086	1467.870850
3137.949219	1562.150513
3137.235352	1561.841919
3136.521484	1509.015259
3135.807617	1662.739136
3135.092773	1550.416504
3134.377930	1452.134521
3133.664063	1493.828491
3132.949219	1605.460571
3132.234375	1587.657715
3131.519531	1650.277832
3130.803711	1709.377441
3130.088867	1628.654785
3129.373047	1617.849487
3128.657227	1641.984253
3127.941406	1585.772827
3127.225586	1620.380615
3126.509766	1623.551147
3125.793945	1658.137451
3125.077148	1640.358276
3124.361328	1674.927368
3123.644531	1705.993896
3122.927734	1744.024048
3122.210938	1823.887329
3121.494141	1722.412231
3120.776367	1742.986328
3120.059570	1840.228271
3119.341797	1815.470825
3118.624023	1804.658691
3117.906250	1814.749878
3117.188477	1817.871948
3116.470703	1786.174438
3115.752930	1820.630737
3115.034180	1830.710205
3114.315430	1830.346313
3113.596680	1802.150024
3112.878906	1867.880493
3112.159180	1937.062378
3111.440430	1877.568359
3110.721680	1915.433960
3110.001953	1960.235474
3109.282227	1900.771973
3108.563477	1949.032471
3107.843750	1910.435547
3107.123047	1917.000732
3106.403320	1861.064697
3105.683594	1971.780029
3104.962891	1888.088989
3104.242188	1929.353394
3103.521484	2081.620850
3102.800781	2056.925049
3102.080078	2018.366943
3101.359375	2004.095093
3100.637695	2014.094971
3099.916992	1947.840698
3099.195313	2124.177979
3098.473633	2012.888916
3097.751953	2029.806152
3097.030273	1991.306152
3096.307617	2056.694824
3095.585938	2094.363037
3094.863281	2135.477295
3094.140625	2131.589844
3093.418945	2106.945801
3092.695313	2161.868408
3091.972656	2171.810791
3091.250000	2140.257568
3090.526367	2032.665039
3089.803711	2118.663574
3089.080078	2194.260986
3088.356445	2256.008545
3087.632813	2355.727051
3086.908203	2306.906494
3086.184570	2254.652832
3085.459961	2268.009277
3084.736328	2402.158203
3084.011719	2229.142334
3083.287109	2397.744629
3082.561523	2338.625488
3081.836914	2307.118896
3081.112305	2434.228516
3080.386719	2471.659424
3079.661133	2367.767090
3078.935547	2470.666748
3078.209961	2435.718750
3077.484375	2538.562988
3076.758789	2486.396484
3076.032227	2496.225830
3075.305664	2540.474609
3074.580078	2643.214355
3073.853516	2611.713623
3073.126953	2621.509033
3072.399414	2706.971680
3071.672852	2665.159668
3070.945313	2757.455078
3070.218750	2660.648682
3069.491211	2811.333740
3068.763672	2769.533447
3068.035156	2748.362549
3067.307617	2802.764648
3066.580078	2805.633545
3065.851563	2873.735107
3065.123047	2886.886230
3064.394531	2896.599609
3063.666016	2803.369873
3062.937500	2929.736328
3062.208984	2891.415771
3061.479492	2914.836182
3060.750977	2979.389404
3060.021484	2975.359375
3059.291992	2988.466553
3058.562500	2912.480469
3057.832031	2894.762695
3057.102539	2983.228760
3056.372070	2958.654785
3055.642578	2937.513916
3054.912109	3060.146729
3054.181641	3086.905518
3053.450195	2973.367676
3052.719727	3126.705811
3051.989258	3262.880859
3051.257813	3111.760742
3050.526367	3264.977051
3049.794922	3274.569336
3049.063477	3164.547119
3048.332031	3232.239990
3047.599609	3299.905273
3046.868164	3329.973633
3046.135742	3230.272217
3045.403320	3396.900879
3044.670898	3372.317871
3043.938477	3518.373779
3043.206055	3521.070557
3042.472656	3496.476563
3041.740234	3621.954102
3041.006836	3593.938965
3040.273438	3736.390869
3039.540039	3865.150391
3038.806641	3751.908691
3038.072266	3918.089600
3037.338867	4016.075439
3036.604492	4073.153320
3035.870117	4154.042480
3035.135742	4142.982910
3034.401367	4169.366699
3033.666992	4301.228516
3032.931641	4535.101563
3032.197266	4523.971680
3031.461914	4587.663574
3030.726563	4756.731934
3029.991211	4980.121094
3029.255859	5067.470215
3028.519531	5012.066895
3027.784180	5316.801270
3027.047852	5560.271484
3026.311523	5684.784180
3025.575195	5846.592773
3024.838867	6093.198242
3024.102539	6587.452637
3023.365234	6803.266113
3022.628906	6812.050293
3021.891602	7343.162109
3021.154297	7670.591309
3020.416992	8136.891113
3019.679688	8660.623047
3018.941406	8889.298828
3018.204102	9609.180664
3017.465820	9922.255859
3016.727539	10489.218750
3015.989258	10954.361328
3015.250977	11720.623047
3014.512695	11914.535156
3013.773438	12582.143555
3013.035156	13090.455078
3012.295898	13392.209961
3011.556641	13714.131836
3010.817383	14275.995117
3010.078125	14695.638672
3009.337891	14881.891602
3008.598633	15409.371094
3007.858398	14872.387695
3007.118164	15014.573242
3006.377930	15247.881836
3005.637695	15021.893555
3004.896484	14779.119141
3004.156250	14745.696289
3003.415039	14202.755859
3002.673828	13896.194336
3001.933594	13357.023438
3001.191406	12797.838867
3000.450195	12855.885742
2999.708984	12152.083984
2998.966797	11711.448242
2998.224609	11341.752930
2997.482422	10982.315430
2996.740234	10431.041992
2995.998047	10045.000000
2995.255859	9861.119141
2994.512695	9855.712891
2993.769531	9507.044922
2993.027344	9457.971680
2992.284180	9496.380859
2991.540039	9262.350586
2990.796875	9146.104492
2990.053711	9191.274414
2989.309570	9088.535156
2988.565430	9214.346680
2987.821289	9323.307617
2987.077148	9502.761719
2986.333008	9416.830078
2985.587891	9572.684570
2984.843750	9600.909180
2984.098633	9837.209961
2983.353516	9791.542969
2982.608398	10249.125000
2981.863281	10327.493164
2981.117188	10553.381836
2980.372070	10698.708008
2979.625977	10847.325195
2978.879883	10989.175781
2978.133789	11489.490234
2977.387695	11617.746094
2976.641602	11732.549805
2975.894531	12081.706055
2975.148438	12340.323242
2974.401367	12618.913086
2973.654297	13215.302734
2972.907227	13399.910156
2972.159180	13768.417969
2971.412109	14166.871094
2970.664063	14591.905273
2969.916016	15080.278320
2969.168945	15270.979492
2968.419922	16096.504883
2967.671875	16664.433594
2966.923828	16754.472656
2966.174805	17452.263672
2965.425781	18119.710938
2964.677734	18673.380859
2963.927734	19443.748047
2963.178711	19930.171875
2962.429688	20286.283203
2961.679688	20788.998047
2960.930664	21438.222656
2960.180664	21747.113281
2959.430664	22139.201172
2958.680664	22571.113281
2957.929688	23482.623047
2957.179688	23874.093750
2956.428711	24435.248047
2955.677734	24859.646484
2954.926758	25663.369141
2954.175781	25767.806641
2953.424805	26714.083984
2952.672852	27560.152344
2951.921875	28332.685547
2951.169922	28562.830078
2950.417969	30189.296875
2949.666016	31688.759766
2948.913086	32546.166016
2948.161133	33941.488281
2947.408203	34990.730469
2946.656250	37112.308594
2945.903320	38834.511719
2945.149414	40741.898438
2944.396484	42528.988281
2943.643555	45261.089844
2942.889648	46980.101563
2942.135742	49666.972656
2941.382813	52210.101563
2940.627930	54384.105469
2939.874023	56202.476563
2939.120117	57794.703125
2938.365234	59783.875000
2937.610352	61268.644531
2936.856445	62477.863281
2936.100586	63256.066406
2935.345703	64593.457031
2934.590820	64986.902344
2933.834961	65936.148438
2933.080078	66792.335938
2932.324219	67357.054688
2931.568359	67881.843750
2930.811523	68694.062500
2930.055664	68077.796875
2929.299805	68995.390625
2928.542969	69258.296875
2927.786133	69801.898438
2927.029297	69925.781250
2926.272461	70128.851563
2925.514648	70533.234375
2924.757813	70006.562500
2924.000000	70704.500000
2923.242188	70702.632813
2922.484375	70430.250000
2921.726563	70801.109375
2920.968750	71062.992188
2920.209961	70965.414063
2919.451172	71751.195313
2918.693359	71185.554688
2917.934570	71951.171875
2917.174805	73052.437500
2916.416016	73122.445313
2915.656250	73620.445313
2914.897461	73637.617188
2914.137695	74184.632813
2913.377930	75165.742188
2912.618164	75514.804688
2911.857422	75603.882813
2911.097656	76222.320313
2910.336914	76748.429688
2909.576172	77142.835938
2908.815430	77376.039063
2908.054688	77694.554688
2907.293945	78577.906250
2906.532227	78761.359375
2905.770508	79683.484375
2905.009766	79318.406250
2904.248047	80413.929688
2903.485352	80134.148438
2902.723633	80543.382813
2901.960938	81109.859375
2901.199219	81076.007813
2900.436523	81960.117188
2899.673828	81470.476563
2898.911133	81429.984375
2898.147461	81776.101563
2897.384766	81434.187500
2896.621094	81593.468750
2895.857422	82243.796875
2895.093750	82242.421875
2894.330078	81903.937500
2893.566406	82959.476563
2892.801758	82339.632813
2892.037109	81877.031250
2891.272461	81911.648438
2890.507813	81397.007813
2889.743164	80709.359375
2888.978516	81623.218750
2888.212891	81331.109375
2887.447266	81088.117188
2886.681641	80325.968750
2885.916016	80328.156250
2885.150391	78897.312500
2884.384766	78827.984375
2883.618164	78670.578125
2882.851563	77221.429688
2882.084961	77504.710938
2881.318359	77178.109375
2880.551758	76744.062500
2879.785156	76381.898438
2879.017578	76883.406250
2878.250000	77498.718750
2877.482422	77732.664063
2876.714844	78676.406250
2875.947266	79356.007813
2875.178711	80692.828125
2874.411133	80948.609375
2873.642578	81168.484375
2872.874023	80496.945313
2872.105469	80528.171875
2871.335938	79349.812500
2870.567383	78614.070313
2869.797852	78593.656250
2869.028320	77650.414063
2868.258789	77298.835938
2867.489258	77493.054688
2866.719727	77618.992188
2865.949219	79004.515625
2865.179688	79389.710938
2864.409180	80933.234375
2863.638672	82917.312500
2862.867188	85176.226563
2862.096680	86685.007813
2861.326172	89597.015625
2860.554688	91985.851563
2859.783203	93148.585938
2859.011719	95107.867188
2858.240234	98663.320313
2857.467773	99797.875000
2856.695313	103120.812500
2855.923828	103344.179688
2855.151367	107250.671875
2854.378906	108744.703125
2853.605469	111460.960938
2852.833008	112202.992188
2852.059570	113054.632813
2851.286133	112622.367188
2850.512695	111178.562500
2849.739258	107783.500000
2848.965820	103494.968750
2848.191406	98397.531250
2847.417969	91690.835938
2846.643555	84254.164063
2845.869141	76530.242188
2845.093750	69961.867188
2844.319336	63364.128906
2843.543945	58549.988281
2842.769531	52509.175781
2841.994141	48450.851563
2841.218750	44597.414063
2840.442383	40739.226563
2839.666992	38616.359375
2838.890625	36117.496094
2838.114258	33854.859375
2837.337891	32330.646484
2836.561523	30675.107422
2835.785156	28878.671875
2835.007813	27868.232422
2834.231445	26452.853516
2833.454102	25147.466797
2832.676758	23980.939453
2831.899414	22641.306641
2831.121094	21662.289063
2830.343750	20523.013672
2829.565430	19792.300781
2828.787109	18798.498047
2828.008789	17866.158203
2827.230469	16828.269531
2826.451172	16359.042969
2825.671875	15719.922852
2824.893555	15132.424805
2824.114258	14651.051758
2823.333984	14195.549805
2822.554688	13733.836914
2821.775391	13172.946289
2820.995117	12849.485352
2820.214844	12404.399414
2819.434570	12347.161133
2818.654297	12168.232422
2817.873047	11915.730469
2817.092773	11640.927734
2816.311523	11343.840820
2815.530273	11376.500000
2814.749023	11313.160156
2813.966797	11096.309570
2813.185547	10991.484375
2812.403320	10746.024414
2811.621094	10532.639648
2810.838867	10475.944336
2810.056641	10448.029297
2809.274414	10343.458984
2808.491211	10382.651367
2807.708008	10281.333008
2806.924805	10151.330078
2806.141602	9944.786133
2805.358398	10047.842773
2804.574219	9978.586914
2803.791016	10052.882813
2803.006836	9958.144531
2802.222656	9904.891602
2801.438477	9781.541992
2800.653320	9814.384766
2799.869141	9617.836914
2799.083984	9669.809570
2798.298828	9454.273438
2797.513672	9483.971680
2796.728516	9427.717773
2795.942383	9298.296875
2795.156250	9149.845703
2794.371094	9020.543945
2793.584961	9063.020508
2792.797852	8936.973633
2792.011719	8804.625977
2791.224609	8694.582031
2790.438477	8352.657227
2789.651367	8280.879883
2788.864258	8383.796875
2788.076172	8350.142578
2787.289063	8278.412109
2786.500977	8216.232422
2785.712891	7966.885742
2784.924805	8164.913574
2784.136719	8042.543457
2783.348633	7974.128906
2782.559570	7820.156738
2781.770508	7881.757813
2780.981445	7601.136230
2780.192383	7808.473145
2779.403320	7832.027344
2778.613281	7763.747559
2777.824219	7793.630371
2777.034180	7617.783203
2776.244141	7574.908691
2775.453125	7652.261719
2774.663086	7783.343750
2773.872070	7756.267090
2773.081055	7691.267090
2772.290039	7705.308105
2771.499023	7931.046875
2770.708008	7790.230957
2769.916016	7940.044434
2769.125000	7758.239746
2768.333008	7822.753906
2767.541016	8019.795898
2766.748047	7702.411133
2765.956055	7848.912598
