#Wave		#Intensity
3495.491211	1652.971802
3494.846680	1559.846558
3494.202148	1637.126465
3493.557617	1768.677246
3492.913086	1686.890991
3492.268555	1593.505493
3491.624023	1686.223022
3490.978516	1705.267334
3490.333008	1739.803467
3489.688477	1716.214844
3489.042969	1727.495361
3488.397461	1738.771240
3487.750977	1699.709717
3487.105469	1734.212769
3486.459961	1760.961670
3485.813477	1683.224121
3485.166992	1748.659668
3484.520508	1744.446289
3483.874023	1662.890747
3483.227539	1739.890869
3482.581055	1727.950439
3481.934570	1692.825195
3481.287109	1808.415161
3480.640625	1734.654175
3479.993164	1780.663208
3479.345703	1826.654175
3478.698242	1845.599365
3478.050781	1783.470215
3477.402344	1825.573730
3476.754883	1778.908203
3476.106445	1747.693237
3475.458984	1782.064453
3474.810547	1905.122070
3474.162109	1947.160156
3473.513672	1781.011475
3472.865234	1842.328613
3472.215820	1911.328613
3471.567383	1864.719604
3470.917969	1806.573120
3470.269531	1921.753906
3469.620117	1728.853149
3468.970703	1928.697144
3468.321289	1820.547485
3467.670898	1820.189453
3467.021484	1839.068726
3466.372070	1884.867188
3465.721680	1961.414917
3465.071289	1968.719727
3464.420898	1891.444824
3463.770508	1860.324097
3463.120117	2032.888672
3462.469727	1982.541626
3461.818359	1901.483276
3461.167969	1835.819336
3460.516602	2038.972168
3459.865234	2034.732788
3459.213867	1980.596313
3458.562500	2010.908569
3457.911133	2064.229980
3457.259766	1944.905884
3456.607422	2017.396118
3455.956055	2082.188721
3455.303711	1959.097290
3454.651367	1997.044189
3453.999023	2057.970215
3453.346680	2015.419312
3452.694336	2068.656250
3452.041016	2171.663574
3451.388672	2002.746948
3450.735352	1952.582886
3450.082031	1921.577759
3449.428711	2070.458252
3448.775391	2077.705566
3448.122070	2046.693970
3447.468750	2153.389160
3446.814453	2084.133789
3446.161133	2068.432617
3445.506836	2148.302490
3444.852539	2079.088867
3444.198242	2051.934570
3443.543945	2093.557129
3442.889648	2119.885010
3442.235352	2146.202637
3441.580078	2203.054932
3440.924805	2175.902588
3440.270508	2125.861328
3439.615234	2186.500000
3438.959961	2277.635986
3438.304688	2284.819824
3437.648438	2288.187256
3436.993164	2097.095215
3436.336914	2203.426025
3435.681641	2077.219238
3435.025391	2149.216309
3434.369141	2247.854980
3433.712891	2167.423340
3433.056641	2182.234131
3432.400391	2200.846680
3431.743164	2234.679932
3431.085938	2279.918457
3430.429688	2153.893311
3429.772461	2271.419678
3429.115234	2282.388672
3428.458008	2243.911133
3427.800781	2232.066162
3427.142578	2281.053955
3426.485352	2307.216553
3425.827148	2325.768066
3425.168945	2340.512939
3424.510742	2355.252197
3423.852539	2248.447754
3423.194336	2430.280762
3422.536133	2463.976563
3421.876953	2429.334229
3421.218750	2349.164063
3420.559570	2337.323730
3419.900391	2488.613281
3419.241211	2438.821289
3418.582031	2404.217285
3417.922852	2479.577637
3417.263672	2407.072266
3416.603516	2361.124756
3415.944336	2500.865479
3415.284180	2420.821289
3414.624023	2412.775146
3413.963867	2506.980225
3413.303711	2483.775146
3412.643555	2483.292236
3411.982422	2581.213379
3411.322266	2550.439209
3410.661133	2425.094482
3410.000000	2530.534912
3409.338867	2613.243408
3408.677734	2533.332520
3408.016602	2472.354492
3407.355469	2468.094482
3406.693359	2539.413818
3406.032227	2565.367432
3405.370117	2636.640137
3404.708008	2541.710938
3404.045898	2628.064209
3403.383789	2687.957520
3402.721680	2593.073242
3402.059570	2720.877441
3401.396484	2610.931641
3400.734375	2572.701904
3400.071289	2704.207031
3399.408203	2741.390381
3398.745117	2608.905029
3398.082031	2608.398682
3397.417969	2668.190674
3396.754883	2709.119873
3396.090820	2588.044922
3395.427734	2576.243652
3394.763672	2809.217773
3394.099609	2699.488525
3393.435547	2778.014160
3392.771484	2694.677979
3392.106445	2652.764893
3391.442383	2791.446777
3390.777344	2847.325439
3390.112305	2835.491699
3389.448242	2718.385986
3388.783203	2868.224609
3388.117188	2792.500488
3387.452148	2810.747803
3386.787109	2832.744873
3386.121094	2828.439697
3385.456055	2899.246094
3384.790039	2913.703613
3384.124023	2849.320313
3383.458008	2897.561523
3382.791992	2949.536377
3382.125000	2982.731934
3381.458984	2835.859863
3380.791992	2869.064453
3380.125000	2842.260986
3379.458984	2931.685791
3378.791992	3021.075684
3378.125000	2904.318115
3377.457031	3042.386719
3376.790039	3097.988525
3376.122070	2861.433105
3375.455078	3010.663330
3374.787109	3092.446045
3374.119141	3031.957031
3373.451172	2956.521729
3372.783203	2911.049072
3372.114258	3142.426758
3371.446289	3074.494141
3370.777344	3122.513184
3370.109375	3035.916504
3369.440430	3151.209961
3368.771484	3098.277100
3368.102539	3142.517578
3367.433594	3112.022461
3366.763672	3171.183594
3366.094727	3185.508301
3365.424805	3207.294678
3364.754883	3225.339600
3364.084961	3220.983643
3363.415039	3197.971191
3362.745117	3092.888672
3362.075195	3181.814209
3361.404297	3199.846191
3360.734375	3296.173828
3360.063477	3150.145264
3359.392578	3231.536133
3358.721680	3312.895264
3358.050781	3323.432373
3357.379883	3155.160645
3356.708984	3206.692139
3356.037109	3239.585205
3355.366211	3339.478760
3354.694336	3249.500000
3354.022461	3345.631104
3353.350586	3452.887451
3352.678711	3251.336670
3352.005859	3366.008057
3351.333984	3376.513672
3350.661133	3286.631592
3349.989258	3445.835693
3349.316406	3437.737061
3348.643555	3188.117432
3347.970703	3428.979004
3347.297852	3372.601807
3346.624023	3553.916748
3345.951172	3430.705078
3345.277344	3415.193848
3344.603516	3459.071533
3343.930664	3491.800049
3343.256836	3509.675781
3342.582031	3542.381592
3341.908203	3415.605713
3341.234375	3604.047363
3340.559570	3499.551025
3339.884766	3602.655518
3339.210938	3505.611084
3338.536133	3519.754150
3337.861328	3530.187256
3337.185547	3444.323486
3336.510742	3543.635498
3335.834961	3668.824219
3335.160156	3568.177246
3334.484375	3678.509766
3333.808594	3759.199463
3333.132813	3603.103760
3332.457031	3598.709473
3331.781250	3631.295410
3331.104492	3571.440186
3330.428711	3655.768555
3329.751953	3666.149902
3329.075195	3754.122070
3328.398438	3716.454590
3327.721680	3771.140625
3327.044922	3593.155273
3326.368164	3762.300537
3325.690430	3794.797119
3325.012695	3805.136719
3324.335938	3697.391846
3323.658203	3663.474609
3322.980469	3766.047852
3322.302734	3883.332764
3321.624023	3690.850586
3320.946289	3815.477539
3320.267578	3652.568604
3319.589844	3791.894531
3318.911133	3758.003662
3318.232422	3834.634033
3317.553711	3778.650391
3316.874023	3954.665771
3316.195313	3791.917725
3315.516602	3732.293457
3314.836914	3786.773682
3314.157227	3970.010010
3313.477539	4009.708496
3312.797852	3847.105957
3312.118164	3835.331787
3311.438477	3819.885254
3310.757813	4058.074463
3310.078125	3869.861816
3309.397461	4027.112793
3308.716797	3916.125488
3308.036133	4084.325439
3307.355469	3899.924805
3306.674805	3825.741211
3305.993164	3968.164795
3305.312500	3982.079346
3304.630859	3999.657471
3303.949219	4130.958496
3303.267578	4016.453369
3302.585938	4019.345215
3301.904297	4044.235352
3301.222656	3893.153809
3300.540039	4053.669189
3299.858398	4155.491211
3299.175781	4000.811523
3298.493164	4106.267090
3297.810547	4226.331543
3297.127930	4119.328125
3296.445313	4286.935059
3295.761719	4110.416992
3295.079102	4138.899414
3294.395508	4211.275879
3293.711914	4045.848633
3293.028320	4096.270996
3292.344727	4252.716797
3291.661133	3995.977539
3290.977539	3991.550537
3290.292969	4231.980469
3289.608398	4205.585938
3288.924805	4259.571289
3288.240234	4193.004395
3287.555664	4162.980469
3286.871094	4165.827637
3286.185547	4040.911621
3285.500977	4153.269043
3284.815430	4294.774414
3284.130859	4250.166504
3283.445313	4289.467773
3282.759766	4339.694336
3282.074219	4291.456543
3281.387695	4316.145020
3280.702148	4362.691895
3280.015625	4420.152832
3279.330078	4342.789551
3278.643555	4443.942383
3277.957031	4370.246094
3277.270508	4271.090332
3276.583984	4350.354980
3275.896484	4429.588867
3275.209961	4512.430664
3274.522461	4435.153320
3273.835938	4397.919434
3273.148438	4447.986328
3272.460938	4428.945313
3271.772461	4449.902344
3271.084961	4510.833984
3270.397461	4495.425293
3269.708984	4371.019531
3269.020508	4479.156250
3268.333008	4638.099121
3267.644531	4553.681641
3266.956055	4520.125488
3266.266602	4548.290527
3265.578125	4725.242188
3264.888672	4662.643555
3264.200195	4454.956055
3263.510742	4639.077148
3262.821289	4522.134277
3262.131836	4619.153809
3261.442383	4669.010254
3260.751953	4686.228027
3260.062500	4717.933594
3259.372070	4568.481445
3258.682617	4611.063965
3257.992188	4729.681152
3257.301758	4663.591309
3256.610352	4821.972656
3255.919922	4603.875488
3255.229492	4773.062988
3254.538086	4848.116699
3253.846680	4792.918457
3253.156250	4763.057617
3252.464844	4657.274414
3251.773438	4873.284180
3251.081055	4641.012695
3250.389648	4705.162109
3249.697266	4657.280762
3249.005859	4725.013672
3248.313477	4843.284668
3247.621094	4885.678223
3246.928711	4816.135742
3246.236328	4916.271484
3245.542969	4792.616211
3244.850586	5008.179199
3244.157227	5046.891113
3243.463867	4905.247559
3242.770508	4803.326172
3242.077148	4971.848633
3241.383789	4949.256836
3240.690430	5103.269043
3239.996094	5095.073242
3239.302734	4924.762695
3238.608398	4977.835938
3237.914063	4944.459961
3237.219727	4979.505859
3236.525391	4895.744141
3235.831055	4948.781250
3235.135742	5088.159180
3234.441406	5108.758301
3233.746094	5114.960938
3233.050781	5110.372070
3232.355469	5084.210938
3231.660156	5194.666504
3230.964844	5247.571777
3230.268555	5095.624512
3229.573242	5141.342285
3228.876953	5158.304688
3228.180664	5060.333984
3227.485352	5260.432617
3226.788086	5198.380371
3226.091797	5139.941406
3225.395508	5257.368164
3224.698242	5112.828613
3224.001953	5359.355957
3223.304688	5254.304199
3222.607422	5199.495117
3221.910156	5366.987305
3221.212891	5333.684082
3220.514648	5318.312012
3219.817383	5371.024414
3219.119141	5344.903320
3218.421875	5340.282227
3217.723633	5450.254395
3217.025391	5334.625000
3216.327148	5458.873047
3215.627930	5346.865723
3214.929688	5460.327637
3214.230469	5402.025391
3213.532227	5411.704590
3212.833008	5528.663086
3212.133789	5377.419434
3211.434570	5572.982422
3210.734375	5507.564941
3210.035156	5520.786133
3209.334961	5591.163574
3208.635742	5743.667969
3207.935547	5710.408203
3207.235352	5677.161133
3206.535156	5668.915527
3205.833984	5732.055664
3205.133789	5766.623535
3204.432617	5594.247070
3203.732422	5582.455566
3203.031250	5506.473633
3202.330078	5815.614258
3201.628906	5775.265625
3200.927734	5759.882324
3200.225586	5936.938477
3199.524414	5750.510254
3198.822266	5756.512695
3198.120117	5897.850098
3197.417969	5675.929199
3196.715820	5802.985840
3196.013672	5873.041992
3195.311523	5807.838379
3194.608398	5963.258301
3193.906250	5769.998047
3193.203125	5783.098145
3192.500000	5849.531738
3191.796875	6203.914551
3191.093750	5975.210938
3190.389648	5977.597656
3189.686523	5969.323730
3188.982422	6117.361328
3188.278320	5938.576660
3187.574219	6083.010742
3186.870117	5893.650879
3186.166016	6087.731934
3185.461914	6075.894531
3184.756836	6184.704102
3184.052734	6066.423340
3183.347656	6040.408203
3182.642578	6042.772949
3181.937500	6261.413574
3181.232422	6476.423828
3180.527344	6110.108887
3179.821289	6371.128906
3179.116211	6086.460938
3178.410156	6149.026367
3177.704102	6392.176758
3176.998047	6369.681152
3176.291992	6294.093750
3175.584961	6147.749512
3174.878906	6369.477051
3174.171875	6499.131348
3173.465820	6526.155273
3172.758789	6468.291504
3172.051758	6527.132813
3171.344727	6462.220703
3170.636719	6549.314453
3169.929688	6558.630859
3169.221680	6444.287109
3168.514648	6718.546875
3167.806641	6438.226563
3167.098633	6761.812988
3166.390625	6700.470703
3165.681641	6519.146484
3164.973633	6757.831543
3164.264648	6837.653320
3163.555664	6755.177734
3162.847656	6859.655273
3162.138672	6756.050293
3161.428711	6920.417969
3160.719727	6894.384766
3160.010742	7069.231934
3159.300781	7018.515625
3158.590820	6925.546387
3157.881836	7128.458496
3157.171875	7158.748047
3156.460938	7108.051758
3155.750977	7145.372070
3155.041016	7186.196777
3154.330078	7237.560059
3153.619141	7352.223145
3152.908203	7241.745117
3152.197266	7110.211914
3151.486328	7165.063477
3150.775391	7448.370117
3150.064453	7422.302734
3149.352539	7557.873047
3148.640625	7654.746582
3147.928711	7280.937012
3147.216797	7472.638672
3146.504883	7660.753418
3145.792969	7687.324219
3145.080078	7752.488770
3144.368164	7529.904785
3143.655273	7865.198242
3142.942383	7860.139160
3142.229492	8072.498535
3141.516602	7934.169434
3140.803711	7866.001465
3140.089844	8078.232422
3139.376953	8108.172852
3138.663086	8061.028320
3137.949219	8132.990234
3137.235352	8117.375488
3136.521484	8059.752441
3135.807617	8114.166992
3135.092773	8298.052734
3134.377930	8219.431641
3133.664063	8525.667969
3132.949219	8464.519531
3132.234375	8592.235352
3131.519531	8590.535156
3130.803711	8504.939453
3130.088867	8332.001953
3129.373047	8669.297852
3128.657227	8821.298828
3127.941406	8609.977539
3127.225586	8768.913086
3126.509766	9022.055664
3125.793945	9065.648438
3125.077148	9084.792969
3124.361328	8960.861328
3123.644531	9252.138672
3122.927734	9131.709961
3122.210938	9311.241211
3121.494141	9466.293945
3120.776367	9373.780273
3120.059570	9483.449219
3119.341797	9436.266602
3118.624023	9469.232422
3117.906250	9463.868164
3117.188477	9496.813477
3116.470703	9703.835938
3115.752930	9942.106445
3115.034180	10061.945313
3114.315430	9868.559570
3113.596680	9675.249023
3112.878906	9781.154297
3112.159180	10106.110352
3111.440430	9978.928711
3110.721680	10227.235352
3110.001953	10277.333984
3109.282227	10337.835938
3108.563477	10280.190430
3107.843750	10493.501953
3107.123047	10144.128906
3106.403320	10263.632813
3105.683594	10511.531250
3104.962891	10405.314453
3104.242188	10313.018555
3103.521484	10637.083008
3102.800781	10628.024414
3102.080078	10650.179688
3101.359375	10863.027344
3100.637695	10909.391602
3099.916992	10841.362305
3099.195313	10589.702148
3098.473633	10795.459961
3097.751953	10644.358398
3097.030273	11016.251953
3096.307617	11079.836914
3095.585938	11056.852539
3094.863281	10988.881836
3094.140625	10844.809570
3093.418945	10949.891602
3092.695313	10854.308594
3091.972656	10845.220703
3091.250000	11209.556641
3090.526367	10975.699219
3089.803711	11184.332031
3089.080078	11144.082031
3088.356445	11214.401367
3087.632813	11194.883789
3086.908203	11272.070313
3086.184570	11079.910156
3085.459961	11326.237305
3084.736328	11327.417969
3084.011719	11183.668945
3083.287109	11281.475586
3082.561523	11141.240234
3081.836914	11270.050781
3081.112305	11705.674805
3080.386719	11306.893555
3079.661133	11270.158203
3078.935547	11405.727539
3078.209961	11334.533203
3077.484375	11352.922852
3076.758789	11519.384766
3076.032227	11434.435547
3075.305664	11655.890625
3074.580078	11471.136719
3073.853516	11492.916016
3073.126953	11335.790039
3072.399414	11577.720703
3071.672852	11513.489258
3070.945313	11686.520508
3070.218750	11766.667969
3069.491211	11568.397461
3068.763672	11504.215820
3068.035156	11687.411133
3067.307617	11808.707031
3066.580078	11744.512695
3065.851563	11793.644531
3065.123047	11756.938477
3064.394531	11764.861328
3063.666016	12047.285156
3062.937500	11924.781250
3062.208984	11870.924805
3061.479492	12050.275391
3060.750977	11783.844727
3060.021484	12086.541016
3059.291992	12152.640625
3058.562500	12002.846680
3057.832031	12058.657227
3057.102539	12179.519531
3056.372070	12317.455078
3055.642578	12277.301758
3054.912109	12144.743164
3054.181641	12193.618164
3053.450195	12341.699219
3052.719727	12328.936523
3051.989258	12459.827148
3051.257813	12423.106445
3050.526367	12434.262695
3049.794922	12568.466797
3049.063477	12822.225586
3048.332031	12648.787109
3047.599609	12530.075195
3046.868164	12476.300781
3046.135742	12716.208984
3045.403320	12959.432617
3044.670898	12792.962891
3043.938477	12862.028320
3043.206055	12852.590820
3042.472656	12867.033203
3041.740234	13120.205078
3041.006836	13209.601563
3040.273438	13121.686523
3039.540039	13173.550781
3038.806641	13457.118164
3038.072266	12991.022461
3037.338867	13509.546875
3036.604492	13680.482422
3035.870117	13773.034180
3035.135742	13555.758789
3034.401367	13699.348633
3033.666992	13614.885742
3032.931641	13809.435547
3032.197266	13697.770508
3031.461914	14140.478516
3030.726563	13981.187500
3029.991211	14260.483398
3029.255859	14213.387695
3028.519531	13952.235352
3027.784180	14136.236328
3027.047852	14337.144531
3026.311523	14473.446289
3025.575195	14616.481445
3024.838867	14769.640625
3024.102539	14681.772461
3023.365234	14967.185547
3022.628906	14987.868164
3021.891602	15059.417969
3021.154297	15113.981445
3020.416992	15005.783203
3019.679688	15395.910156
3018.941406	15443.588867
3018.204102	15267.619141
3017.465820	15505.006836
3016.727539	15576.336914
3015.989258	15637.478516
3015.250977	15837.398438
3014.512695	15986.462891
3013.773438	16179.458008
3013.035156	16061.097656
3012.295898	16463.724609
3011.556641	16460.339844
3010.817383	16440.048828
3010.078125	16548.228516
3009.337891	16916.617188
3008.598633	16963.826172
3007.858398	16889.382813
3007.118164	16993.998047
3006.377930	17497.072266
3005.637695	17442.820313
3004.896484	17385.212891
3004.156250	17415.378906
3003.415039	17874.078125
3002.673828	18116.669922
3001.933594	18170.273438
3001.191406	18311.533203
3000.450195	18449.359375
2999.708984	18721.962891
2998.966797	19105.669922
2998.224609	19061.287109
2997.482422	19124.724609
2996.740234	19332.962891
2995.998047	19423.251953
2995.255859	19442.800781
2994.512695	19788.845703
2993.769531	19979.937500
2993.027344	20285.347656
2992.284180	20866.470703
2991.540039	20461.923828
2990.796875	20730.048828
2990.053711	20843.417969
2989.309570	21181.933594
2988.565430	21285.074219
2987.821289	21824.939453
2987.077148	22079.056641
2986.333008	22087.908203
2985.587891	22261.277344
2984.843750	22448.000000
2984.098633	22651.425781
2983.353516	22680.273438
2982.608398	23094.917969
2981.863281	23314.845703
2981.117188	23792.896484
2980.372070	23553.251953
2979.625977	23742.769531
2978.879883	24307.560547
2978.133789	24275.693359
2977.387695	24602.285156
2976.641602	24747.876953
2975.894531	24826.433594
2975.148438	25052.261719
2974.401367	25642.837891
2973.654297	25647.527344
2972.907227	25732.511719
2972.159180	25917.810547
2971.412109	26019.417969
2970.664063	26475.414063
2969.916016	26489.941406
2969.168945	26872.111328
2968.419922	27117.113281
2967.671875	27231.714844
2966.923828	27342.925781
2966.174805	27407.333984
2965.425781	27485.066406
2964.677734	27526.044922
2963.927734	28111.001953
2963.178711	27918.255859
2962.429688	28022.494141
2961.679688	27949.912109
2960.930664	28477.587891
2960.180664	28688.318359
2959.430664	28942.289063
2958.680664	28859.566406
2957.929688	28886.826172
2957.179688	29033.990234
2956.428711	29454.181641
2955.677734	29368.078125
2954.926758	29405.181641
2954.175781	29275.849609
2953.424805	29342.898438
2952.672852	29443.185547
2951.921875	29506.837891
2951.169922	29746.712891
2950.417969	30006.431641
2949.666016	29983.490234
2948.913086	29711.296875
2948.161133	30529.064453
2947.408203	30057.544922
2946.656250	30027.955078
2945.903320	29975.128906
2945.149414	29962.162109
2944.396484	29793.193359
2943.643555	29946.187500
2942.889648	30119.021484
2942.135742	29747.773438
2941.382813	29290.453125
2940.627930	29652.300781
2939.874023	29785.257813
2939.120117	29490.609375
2938.365234	29441.289063
2937.610352	28987.814453
2936.856445	29471.876953
2936.100586	29230.515625
2935.345703	29075.333984
2934.590820	28999.656250
2933.834961	28904.150391
2933.080078	28706.113281
2932.324219	28448.615234
2931.568359	28330.126953
2930.811523	28254.669922
2930.055664	28225.525391
2929.299805	28546.738281
2928.542969	28084.652344
2927.786133	27847.416016
2927.029297	28079.312500
2926.272461	27961.056641
2925.514648	27499.474609
2924.757813	27896.333984
2924.000000	27408.554688
2923.242188	27933.941406
2922.484375	27776.238281
2921.726563	28047.359375
2920.968750	27764.392578
2920.209961	27999.128906
2919.451172	27518.523438
2918.693359	27575.257813
2917.934570	27559.484375
2917.174805	27388.900391
2916.416016	27511.480469
2915.656250	27535.230469
2914.897461	27838.771484
2914.137695	27477.375000
2913.377930	27540.591797
2912.618164	27830.767578
2911.857422	27943.210938
2911.097656	27910.916016
2910.336914	27766.857422
2909.576172	27586.699219
2908.815430	27495.341797
2908.054688	27634.003906
2907.293945	27565.662109
2906.532227	27503.916016
2905.770508	27704.859375
2905.009766	27974.648438
2904.248047	27591.214844
2903.485352	27365.439453
2902.723633	28156.720703
2901.960938	27839.082031
2901.199219	28003.603516
2900.436523	27987.740234
2899.673828	27922.712891
2898.911133	27536.566406
2898.147461	27730.486328
2897.384766	27809.673828
2896.621094	27856.074219
2895.857422	28046.513672
2895.093750	28299.064453
2894.330078	28397.683594
2893.566406	28201.771484
2892.801758	28264.378906
2892.037109	28549.355469
2891.272461	28422.197266
2890.507813	28563.166016
2889.743164	28491.615234
2888.978516	28727.267578
2888.212891	28286.523438
2887.447266	28394.722656
2886.681641	28395.101563
2885.916016	28072.246094
2885.150391	28121.652344
2884.384766	28565.925781
2883.618164	28504.259766
2882.851563	27940.246094
2882.084961	28501.669922
2881.318359	28619.388672
2880.551758	28313.248047
2879.785156	28610.210938
2879.017578	28428.027344
2878.250000	28353.427734
2877.482422	28093.199219
2876.714844	28168.498047
2875.947266	28113.527344
2875.178711	28384.083984
2874.411133	27590.347656
2873.642578	28134.199219
2872.874023	27975.177734
2872.105469	27878.013672
2871.335938	27982.482422
2870.567383	27761.822266
2869.797852	27993.017578
2869.028320	28094.132813
2868.258789	27688.408203
2867.489258	28185.789063
2866.719727	27780.214844
2865.949219	27871.533203
2865.179688	27709.634766
2864.409180	28187.091797
2863.638672	28086.832031
2862.867188	28356.394531
2862.096680	28100.470703
2861.326172	28249.939453
2860.554688	28127.046875
2859.783203	28529.224609
2859.011719	28092.025391
2858.240234	28435.716797
2857.467773	27920.992188
2856.695313	28280.753906
2855.923828	28238.927734
2855.151367	28316.869141
2854.378906	28226.509766
2853.605469	28589.107422
2852.833008	28550.470703
2852.059570	28602.390625
2851.286133	28605.789063
2850.512695	28906.556641
2849.739258	28725.677734
2848.965820	28855.041016
2848.191406	29058.636719
2847.417969	28877.833984
2846.643555	29397.744141
2845.869141	29420.304688
2845.093750	28765.113281
2844.319336	29297.601563
2843.543945	29174.992188
2842.769531	28839.570313
2841.994141	28991.189453
2841.218750	29339.384766
2840.442383	29526.271484
2839.666992	29548.732422
2838.890625	29239.353516
2838.114258	29416.462891
2837.337891	29567.728516
2836.561523	29757.558594
2835.785156	29824.986328
2835.007813	29789.402344
2834.231445	29982.261719
2833.454102	29782.603516
2832.676758	29933.562500
2831.899414	30306.298828
2831.121094	30469.925781
2830.343750	29916.808594
2829.565430	30507.773438
2828.787109	29942.037109
2828.008789	30378.570313
2827.230469	30567.664063
2826.451172	30730.990234
2825.671875	30560.453125
2824.893555	30312.980469
2824.114258	30575.689453
2823.333984	30591.314453
2822.554688	31155.255859
2821.775391	31209.207031
2820.995117	30638.123047
2820.214844	31252.933594
2819.434570	31037.701172
2818.654297	31005.130859
2817.873047	31456.119141
2817.092773	31164.132813
2816.311523	31256.378906
2815.530273	31476.583984
2814.749023	31277.560547
2813.966797	31398.494141
2813.185547	31717.644531
2812.403320	32001.476563
2811.621094	31997.486328
2810.838867	31817.724609
2810.056641	31877.671875
2809.274414	31755.505859
2808.491211	31662.134766
2807.708008	32114.798828
2806.924805	32056.494141
2806.141602	32135.447266
2805.358398	32070.775391
2804.574219	32427.218750
2803.791016	32394.394531
2803.006836	32597.539063
2802.222656	32389.345703
2801.438477	32484.027344
2800.653320	33110.804688
2799.869141	33017.308594
2799.083984	32974.812500
2798.298828	32868.648438
2797.513672	32622.443359
2796.728516	32939.718750
2795.942383	32731.787109
2795.156250	32896.175781
2794.371094	33416.726563
2793.584961	33253.335938
2792.797852	33401.582031
2792.011719	33098.402344
2791.224609	33313.343750
2790.438477	33274.011719
2789.651367	33288.695313
2788.864258	33592.351563
2788.076172	33514.871094
2787.289063	33634.222656
2786.500977	33467.898438
2785.712891	33948.894531
2784.924805	33449.500000
2784.136719	33739.992188
2783.348633	34217.414063
2782.559570	34168.410156
2781.770508	34255.699219
2780.981445	34197.191406
2780.192383	34357.281250
2779.403320	34558.464844
2778.613281	34670.894531
2777.824219	34492.035156
2777.034180	34965.214844
2776.244141	34311.742188
2775.453125	34822.695313
2774.663086	35292.292969
2773.872070	35439.152344
2773.081055	35522.714844
2772.290039	35767.421875
2771.499023	35519.082031
2770.708008	36133.277344
2769.916016	35430.160156
2769.125000	36381.945313
2768.333008	35997.925781
2767.541016	36396.808594
2766.748047	36653.503906
2765.956055	36764.964844
